timestamp,emg1,emg2,emg3,emg4,emg5,emg6,emg7,emg8
1615920618738588,3,1,-3,-6,4,1,-4,0
1615920618738588,-3,-3,6,-2,-18,-1,16,-9
1615920618754545,-1,-2,-5,9,13,-7,16,12
1615920618754545,-1,-3,2,1,48,12,-5,-7
1615920618755543,0,-2,3,-4,-52,-19,-5,3
1615920618755543,0,1,-5,3,17,2,-13,-2
1615920618770559,-1,1,3,1,13,-13,14,0
1615920618770559,0,1,2,-3,-8,-5,-7,0
1615920618776570,0,-2,-2,-3,9,7,6,2
1615920618776570,-1,-1,-2,9,-4,0,8,2
1615920618791487,-3,-2,1,0,14,2,-18,-8
1615920618791487,5,0,-2,-4,-22,-7,2,7
1615920618798467,-2,-2,-4,3,19,-2,-13,-3
1615920618798467,-2,0,5,-5,-17,-7,-9,-2
1615920618814424,-2,-3,-4,4,12,12,30,5
1615920618814424,1,5,0,-4,-47,-13,-4,-2
1615920618821406,-3,-2,-2,0,30,8,6,2
1615920618821406,-2,-4,-4,-1,5,-2,-20,-4
1615920618829984,2,1,2,2,35,21,16,11
1615920618829984,-2,-4,-7,-11,-26,-21,-14,-9
1615920618836926,-1,-1,-2,6,-17,-16,15,2
1615920618836926,0,-2,-3,-11,-3,-10,18,-2
1615920618859183,-1,1,3,3,18,-7,0,9
1615920618859183,-1,1,4,5,-25,2,-8,-5
1615920618860174,-3,-5,-5,-4,22,-6,0,-3
1615920618860174,1,-1,0,7,6,8,-17,-2
1615920618874163,1,1,0,-4,-28,-13,4,-1
1615920618874163,-1,-1,0,-3,5,5,3,1
1615920618875142,-1,2,4,-4,2,3,-8,-4
1615920618875142,2,3,0,4,8,-6,-8,0
1615920618890121,-5,-4,-6,-12,-33,2,7,-2
1615920618890121,-1,-2,10,9,12,8,-9,-1
1615920618896106,-3,-4,-3,0,2,10,0,-1
1615920618896106,0,0,-3,-2,1,5,-9,-9
1615920618911175,2,1,0,1,-16,6,5,-1
1615920618911175,-1,0,-9,-5,8,-12,-22,-2
1615920618919379,-1,-1,3,1,15,-15,18,-3
1615920618919379,-2,-2,3,0,-6,7,-1,9
1615920618934527,-2,-1,-4,-5,-19,0,13,-4
1615920618934527,-1,-3,-2,-4,-11,-32,-44,-10
1615920618935521,1,2,3,7,26,1,3,1
1615920618935521,-1,1,-8,-5,4,6,-8,-4
1615920618957483,1,0,5,-3,-28,-22,2,6
1615920618957483,-4,-3,-3,3,10,3,21,4
1615920618957483,-1,1,-1,-1,-19,3,-7,-2
1615920618957483,-3,-3,1,-1,15,-4,-9,-3
1615920618971446,-4,-3,-6,-2,-5,-4,-8,-3
1615920618971446,0,2,7,4,5,6,21,6
1615920618978593,-1,1,-6,-12,-20,-1,-8,-10
1615920618978593,0,-1,1,7,0,3,5,-3
1615920618994403,1,0,-2,-3,36,1,-7,-4
1615920618994403,-1,-2,-7,-7,-33,-2,15,5
1615920618995401,1,-2,0,-2,14,6,3,12
1615920618995401,-1,2,2,-4,-5,-7,-7,-11
1615920619010362,-2,1,5,9,7,23,2,-5
1615920619010362,1,-2,-6,-6,37,-9,-12,0
1615920619016350,-2,-3,0,-4,-29,-28,0,-2
1615920619016350,-1,-2,-4,5,6,-4,10,4
1615920619031309,0,0,7,2,11,2,-9,3
1615920619031309,-5,-3,1,6,4,4,5,-1
1615920619039284,0,-1,-1,-1,-21,12,2,-2
1615920619039284,0,-1,-4,0,10,-16,-36,-4
1615920619054275,-5,-2,4,-1,-15,-12,14,-4
1615920619054275,1,-3,-6,2,-1,17,21,4
1615920619069252,-1,2,5,-4,10,-3,10,10
1615920619069252,2,0,-1,0,-8,4,-33,-15
1615920619078204,0,-1,-9,-4,-4,-12,5,4
1615920619078204,-1,0,7,-1,-2,14,0,-6
1615920619079181,-1,-4,-2,3,4,-13,13,4
1615920619079181,-1,0,3,1,-12,2,4,0
1615920619091146,1,2,0,-11,-11,-4,-16,-5
1615920619091146,0,2,-4,2,9,9,5,-3
1615920619107102,-4,-2,-4,9,20,12,-9,-5
1615920619107102,0,-1,5,-11,-14,17,23,8
1615920619114339,0,-3,-4,0,-7,-22,-34,-7
1615920619114339,-1,-2,-4,-4,-4,-1,23,5
1615920619121319,-3,-1,0,1,-58,5,1,-7
1615920619121319,-3,-3,-7,-4,-4,2,1,-1
1615920619139271,-3,-1,-1,6,25,15,20,7
1615920619139271,1,0,2,-4,-9,-15,-32,-6
1615920619144257,-2,-3,-6,-10,-3,4,-14,-8
1615920619144257,-2,-1,1,4,8,-8,18,10
1615920619151245,1,-1,-3,0,-14,2,1,-2
1615920619151245,-3,-1,-5,-1,4,8,-11,-1
1615920619159224,-1,-2,-4,-2,12,-16,-17,-4
1615920619159224,1,-2,1,0,10,2,11,10
1615920619174257,-3,-2,-2,2,0,-5,-5,-9
1615920619174257,1,0,-1,0,17,-6,-3,-1
1615920619181202,0,0,0,-5,-37,5,-3,0
1615920619181202,-3,-2,-4,1,26,-3,5,-1
1615920619190182,-3,-3,4,1,13,11,-5,0
1615920619190182,2,2,1,1,9,-3,8,0
1615920619204142,2,1,4,2,24,24,9,10
1615920619204142,-4,-3,0,0,-11,-34,-41,-14
1615920619213101,-7,-6,-4,-4,-4,-6,-19,-3
1615920619213101,1,3,-3,-1,12,5,1,-1
1615920619219235,-1,-4,-1,0,7,1,19,2
1615920619219235,-4,-5,-1,2,-3,10,2,-8
1615920619234096,1,-1,1,-4,-13,-5,-19,-1
1615920619234096,-5,-4,0,-4,-14,0,6,-2
1615920619241104,0,2,-1,-2,-11,-19,-2,-2
1615920619241104,0,0,-6,-6,-2,2,4,-4
1615920619257039,-6,-3,-1,4,-1,4,1,8
1615920619257039,6,5,-4,-7,-19,-5,1,-6
1615920619258033,-4,-3,1,5,15,17,-19,-7
1615920619258033,1,-1,-3,-2,6,-5,-1,0
1615920619273108,3,1,3,0,-4,-1,14,5
1615920619273108,-2,-3,-2,0,1,0,1,6
1615920619279087,-4,-2,-3,-1,20,3,-12,-8
1615920619279087,-2,-1,-5,-6,-6,10,8,2
1615920619293961,0,-1,-12,-10,-2,-15,-7,-4
1615920619293961,-3,-2,9,17,-8,-1,4,-6
1615920619309992,4,0,-1,-2,22,-7,-1,10
1615920619309992,-2,1,5,6,-11,-5,17,3
1615920619316973,-1,-2,-8,-9,-6,7,0,-3
1615920619316973,0,-2,-2,-13,-10,-4,15,1
1615920619317873,-3,-1,-3,5,0,-11,-23,-12
1615920619317873,3,2,4,2,2,-7,-21,5
1615920619332870,-1,-1,3,1,8,5,6,-5
1615920619332870,-6,-4,-5,3,-7,-2,-10,-1
1615920619338854,-3,-1,1,-8,-1,0,2,1
1615920619338854,-1,-1,-3,-3,-8,5,20,0
1615920619353814,4,2,2,8,13,1,-4,5
1615920619353814,-3,-5,-7,-12,-19,-7,-26,-4
1615920619361792,5,3,2,2,7,-3,12,-5
1615920619361792,-3,-5,-1,-1,-11,10,-2,-1
1615920619379081,1,-1,-1,3,2,0,8,2
1615920619379081,-2,-1,0,0,-8,-6,4,1
1615920619379081,-3,-3,0,-1,13,-1,0,-2
1615920619379081,-2,0,-1,-1,-2,0,4,-1
1615920619393046,-2,0,-2,-1,-23,-6,-12,-7
1615920619393046,0,-1,-1,-6,10,4,22,10
1615920619399334,-1,0,-2,2,-20,-3,13,0
1615920619399334,3,4,8,-4,2,1,-17,-7
1615920619414171,-1,1,4,2,-17,-7,6,-3
1615920619414171,-1,-3,-4,-3,20,19,-11,-9
1615920619421045,-1,-1,0,-8,-3,15,12,-1
1615920619421045,-2,-5,-6,-4,-25,-28,-7,0
1615920619437003,3,-1,-2,-5,5,17,16,8
1615920619437003,0,-1,-1,2,-1,2,-29,-10
1615920619438996,-3,-2,-1,3,8,-5,-7,1
1615920619438996,-3,-1,-2,-5,22,-18,-4,-5
1615920619453013,0,2,2,3,12,-3,6,2
1615920619453013,-1,-2,-7,-1,-3,1,-10,-1
1615920619459154,-7,-3,3,5,2,-18,-5,-6
1615920619459154,9,8,0,-5,7,7,2,14
1615920619474186,-1,0,-2,7,-19,-3,3,-1
1615920619474186,-4,-3,-2,-7,24,4,1,-6
1615920619481303,1,-3,-6,-2,3,9,-4,-1
1615920619481303,-7,-2,8,-8,-28,-2,10,-3
1615920619497166,2,0,-2,1,15,7,-7,13
1615920619497166,1,3,7,3,-19,-10,2,-15
1615920619498163,-1,-2,-4,-1,-10,-5,-8,-1
1615920619498163,0,-1,-4,2,16,12,8,1
1615920619513124,-1,0,0,-4,-1,1,-7,-6
1615920619513124,-1,1,2,1,-3,-18,-2,8
1615920619519132,0,-1,-1,-2,8,15,17,4
1615920619519132,0,-2,-12,-9,-54,-10,-6,-5
1615920619534068,-4,-2,2,10,36,-7,-1,-5
1615920619534068,-10,-7,-10,-12,-24,4,-20,0
1615920619550025,5,7,13,10,12,4,-6,1
1615920619550025,-3,-4,-6,-3,-2,7,-2,-6
1615920619557006,-2,-3,-7,-8,15,-9,-6,2
1615920619557006,-1,3,8,6,-5,-12,22,3
1615920619558004,-2,-3,-6,-3,-9,0,2,-1
1615920619558004,-3,-4,4,3,14,4,-5,-3
1615920619572963,-7,-1,-6,-4,-11,7,-7,-10
1615920619572963,1,-1,1,1,-6,4,-10,-2
1615920619586927,4,2,-1,-3,-4,20,13,4
1615920619586927,4,0,1,4,-32,-20,10,6
1615920619593907,-3,-5,-4,-5,-6,0,-33,-8
1615920619593907,5,1,0,3,14,-3,7,6
1615920619600889,-4,-4,-1,3,-10,-17,8,-3
1615920619600889,-3,0,-2,-3,25,10,11,-2
1615920619616846,3,1,-5,-11,-32,-13,-1,-4
1615920619616846,-1,-2,-3,6,8,-9,2,-1
1615920619617844,1,-2,11,4,1,-2,-20,-2
1615920619617844,-2,1,-4,1,15,-10,-7,-6
1615920619632836,-3,0,1,-1,9,9,37,12
1615920619632836,2,1,-3,-7,-27,-9,-24,-12
1615920619638820,-1,-5,-14,-13,-10,0,-3,5
1615920619638820,-5,-1,15,9,5,-2,-16,-7
1615920619655774,1,2,4,5,21,0,19,3
1615920619655774,-10,-5,-5,-7,-13,4,-27,-11
1615920619669736,1,4,-5,-4,3,2,8,1
1615920619669736,10,-3,-6,-3,-10,4,-18,1
1615920619676602,-3,-1,0,0,8,-12,-2,0
1615920619676602,-2,0,3,-2,3,11,18,3
1615920619677599,-4,-3,0,4,17,5,-12,-5
1615920619677599,2,2,-1,0,17,-2,12,6
1615920619692560,1,-1,-8,2,1,-6,-1,-3
1615920619692560,2,-2,3,2,12,9,6,1
1615920619698543,-2,0,1,3,-6,-25,-10,-2
1615920619698543,-4,0,-9,-7,-17,12,2,-5
1615920619730164,9,-2,4,3,18,8,6,0
1615920619730164,-2,1,2,4,14,-2,-2,3
1615920619731161,-4,-2,-5,-3,-34,5,12,-4
1615920619731161,-4,-3,-7,-11,-11,-1,-27,-7
1615920619738142,-3,-3,1,1,-20,-11,-19,-5
1615920619738142,6,3,1,3,23,3,23,5
1615920619739140,2,0,2,-7,-16,-14,-32,-3
1615920619739140,0,0,-3,-1,3,16,23,9
1615920619753103,-3,-1,-3,-7,-18,0,-12,-8
1615920619753103,0,-2,-3,0,2,-14,12,7
1615920619759114,-1,-2,-9,1,8,-13,-8,0
1615920619759114,2,0,9,-4,-7,-5,-4,-4
1615920619774084,1,-1,7,8,5,11,0,0
1615920619774084,-1,-2,-5,-4,-7,6,11,4
1615920619781172,-1,1,-7,0,5,-5,2,-4
1615920619781172,-4,-2,6,-1,6,7,2,2
1615920619797093,-5,-4,-7,-4,-68,-10,-12,-7
1615920619797093,1,2,1,-5,1,12,-3,-2
1615920619798091,1,0,16,7,15,7,19,0
1615920619798091,-3,-2,-5,3,18,-4,-15,-6
1615920619813050,0,3,-3,2,-2,-3,4,-4
1615920619813050,-2,0,3,-2,-23,-3,8,-3
1615920619819035,-1,-5,-5,-5,-11,10,-6,3
1615920619819035,-1,-1,0,5,8,-21,20,-1
1615920619834020,-9,-7,-1,-2,23,11,0,-2
1615920619834020,2,2,-8,-5,-20,-7,0,0
1615920619840976,13,-1,1,2,23,4,-19,-6
1615920619840976,-2,0,-1,-1,-24,-8,16,4
1615920619856938,-3,0,-5,-3,10,11,5,0
1615920619856938,-1,-1,-1,0,11,-1,14,6
1615920619857930,-5,-2,-4,-4,3,-6,10,2
1615920619857930,1,0,0,5,13,-2,-10,-2
1615920619872890,2,-1,-3,-5,-22,4,-6,-1
1615920619872890,-2,-3,-2,-2,-42,-1,12,-2
1615920619879396,0,-2,-4,-6,29,13,10,5
1615920619879396,-5,-3,-3,8,19,7,0,-6
1615920619893977,3,4,3,-7,4,4,10,5
1615920619893977,-7,-5,-5,18,19,-15,-24,-7
1615920619901956,2,4,2,-13,-25,0,-15,-8
1615920619901956,-2,-1,-4,0,7,-1,1,1
1615920619917245,1,-2,0,-8,3,8,4,-1
1615920619917245,1,1,5,9,6,-5,9,4
1615920619918144,-6,-6,-4,-3,-24,-14,-7,-4
1615920619918144,-7,0,-2,-4,2,3,-38,-7
1615920619933104,0,2,-3,0,9,-10,4,2
1615920619933104,2,-1,2,-4,-2,-4,-9,0
1615920619939113,-6,0,-3,-1,0,8,15,-2
1615920619939113,2,0,-1,0,0,-1,10,4
1615920619954049,2,-3,-2,0,25,7,-17,-5
1615920619954049,-1,0,0,-4,1,-1,-20,-3
1615920619961053,-1,0,6,7,4,-3,-1,-1
1615920619961053,-1,-5,-6,-8,-19,-1,17,11
1615920619977668,-1,1,2,0,-3,-3,-4,-8
1615920619977668,4,2,1,2,34,9,16,8
1615920619977668,-8,-6,-10,-2,11,3,-18,-6
1615920619977668,6,3,6,9,-5,1,-8,-9
1615920619992603,-4,-3,3,-1,-4,-26,-15,1
1615920619992603,1,0,-7,-10,-18,-6,1,-2
1615920619998611,-3,-3,-3,0,-11,-4,-2,3
1615920619998611,-1,-2,-2,-4,17,5,16,2
1615920620013645,0,2,0,1,-4,0,4,-1
1615920620013645,-5,1,-1,0,15,-3,-6,-6
1615920620021526,1,2,4,-1,3,5,5,2
1615920620021526,-2,0,-3,-2,-18,-3,-16,-4
1615920620036537,-2,-2,1,1,-8,5,12,2
1615920620036537,-1,-3,2,3,22,-10,7,3
1615920620043542,-5,-4,-6,-5,-15,1,-8,0
1615920620043542,1,0,-8,-3,5,0,-14,-3
1615920620052493,-4,-2,1,-6,-6,9,4,-10
1615920620052493,0,0,5,3,-2,-17,-4,-1
1615920620058477,1,2,0,2,-8,4,4,2
1615920620058477,-6,-7,-2,-6,-1,1,15,7
1615920620075432,1,-1,-7,3,-3,-5,-2,-3
1615920620075432,0,-1,-5,-8,21,1,-18,-7
1615920620081416,3,2,3,4,0,0,7,1
1615920620081416,-2,-3,-5,-2,-5,1,3,-1
1615920620096401,2,2,5,2,5,9,5,6
1615920620096401,-3,-2,1,-7,-45,-10,-8,-4
1615920620104355,1,-3,-4,7,26,6,14,2
1615920620104355,1,1,-2,-9,-23,-12,-9,0
1615920620113332,-2,-1,0,-3,0,-17,14,10
1615920620113332,-4,-1,-6,0,2,16,-45,-16
1615920620119317,2,-1,3,0,8,3,2,0
1615920620119317,2,2,1,1,4,-4,7,5
1615920620134306,-4,-4,-5,-2,-12,-9,-10,-14
1615920620134306,-2,-2,-2,-5,-5,2,15,10
1615920620141285,1,2,-1,0,-19,0,-1,-2
1615920620141285,0,-2,2,7,44,9,-17,-5
1615920620156216,-8,-4,-1,-5,-17,-6,21,2
1615920620156216,7,5,-4,0,-1,5,7,0
1615920620164219,-4,-4,-8,-5,-21,-13,-7,-6
1615920620164219,2,1,11,6,31,-1,1,-2
1615920620179178,-2,-3,1,7,2,9,-6,8
1615920620179178,-2,-3,-7,0,-20,-15,16,4
1615920620180152,1,1,5,-4,-11,-3,-22,-5
1615920620180152,-2,-1,-3,-2,18,12,6,-2
1615920620194114,1,0,-4,-1,6,9,-25,-7
1615920620194114,2,2,5,5,8,1,13,3
1615920620209192,-3,-2,-6,-9,-21,2,-31,-5
1615920620209192,-2,-4,-1,1,-6,-13,16,-4
1615920620216289,2,3,9,-6,-19,-12,-21,-3
1615920620216289,-10,-6,-7,1,11,7,8,-3
1615920620224270,2,7,0,-1,0,-7,36,5
1615920620224270,-2,-3,-5,2,-22,2,-9,-8
1615920620239230,1,-1,-3,-2,19,-7,-9,3
1615920620239230,-4,-3,-6,-3,28,10,-15,2
1615920620240227,-6,-4,7,3,5,10,7,-4
1615920620240227,2,2,3,-7,-5,3,7,7
1615920620254190,0,0,-4,-6,-1,-12,5,1
1615920620254190,-2,-2,0,3,-24,-4,-9,-3
1615920620261269,-1,-1,0,3,17,-2,20,3
1615920620261269,1,2,1,1,-8,-4,-38,-2
1615920620276247,-2,-3,-1,0,11,2,-8,5
1615920620276247,0,-2,1,-3,5,10,5,-8
1615920620284343,2,-2,-4,0,3,-12,-6,1
1615920620284343,-9,-2,0,-3,-25,-9,9,0
1615920620299299,-1,-1,-2,3,2,10,1,-4
1615920620299299,9,0,-2,-3,-1,-9,-14,1
1615920620300198,0,-2,-6,0,6,11,-2,1
1615920620300198,4,3,9,-2,-23,-14,9,-4
1615920620314263,1,-2,-6,0,2,5,16,7
1615920620314263,-2,1,3,1,8,2,-22,-16
1615920620321142,-2,-2,-2,-8,-15,3,2,2
1615920620321142,1,-1,-6,-1,-23,-11,9,4
1615920620336128,-3,1,1,4,18,6,-28,-7
1615920620336128,-2,-2,-1,-9,-46,1,16,6
1615920620344131,1,0,1,5,25,3,-3,-2
1615920620344131,2,-2,-4,0,-6,-6,-11,-2
1615920620359216,2,3,0,8,6,1,17,1
1615920620359216,-3,-5,-3,-13,-10,-6,-6,8
1615920620360210,-2,1,2,3,-9,-1,-5,-13
1615920620360210,-5,-3,-4,3,10,8,-10,1
1615920620374173,5,2,4,-6,-4,1,1,-6
1615920620374173,-1,-1,1,3,7,-5,-10,1
1615920620381157,-8,-4,-4,-5,-5,-2,7,4
1615920620381157,-1,-2,-10,-4,-12,-9,7,1
1615920620396114,-4,-1,8,1,34,-10,-11,-12
1615920620396114,-1,2,1,1,-45,-3,26,7
1615920620404093,3,-1,-1,-2,13,-5,-44,-3
1615920620404093,1,-1,-3,-3,-8,3,1,-5
1615920620419184,-2,-6,-10,-5,-1,1,4,3
1615920620419184,1,2,3,7,24,11,7,0
1615920620420098,-3,-1,2,-1,-24,-8,20,-3
1615920620420098,0,0,3,0,16,17,5,3
1615920620434176,0,0,-3,-5,-17,-22,-4,9
1615920620434176,-15,-3,0,2,9,-5,-16,-19
1615920620441092,1,0,-6,-2,15,8,12,3
1615920620441092,6,3,2,2,0,-4,14,4
1615920620456089,0,-1,2,3,-12,-1,-34,-8
1615920620456089,1,1,-2,1,6,3,20,1
1615920620464168,-3,-4,0,0,4,-4,-5,-1
1615920620464168,-3,1,-6,-14,-7,5,3,1
1615920620480136,2,-1,-1,2,-10,-2,0,-3
1615920620480136,4,-1,1,-2,-27,-7,3,8
1615920620480136,-4,-2,-4,-1,-29,-1,-12,-7
1615920620480136,3,0,-6,2,26,8,8,0
1615920620495124,-4,0,-5,-6,-7,-6,13,-5
1615920620495124,5,1,-2,-5,-1,2,-19,-4
1615920620510178,-7,-3,0,0,-17,-7,31,10
1615920620510178,-12,-5,4,3,-5,-10,-12,-11
1615920620516271,3,2,-2,1,1,9,11,1
1615920620516271,4,0,-7,0,16,6,-7,2
1615920620524251,4,2,7,0,14,4,-7,-2
1615920620524251,-1,-2,-1,0,6,9,-8,-2
1615920620539360,-9,-4,-5,-3,-8,-10,30,4
1615920620539360,1,0,-4,-5,11,0,-20,-1
1615920620540332,2,0,-3,-2,-5,2,-7,-1
1615920620540332,-1,-3,1,6,9,1,-2,-4
1615920620555293,2,-1,-3,-5,-14,6,-5,4
1615920620555293,-2,-2,-5,3,32,4,12,-4
1615920620561298,2,-3,2,-1,-25,-15,-16,0
1615920620561298,1,5,3,0,10,5,5,1
1615920620576255,-9,-3,0,2,-5,2,-8,-10
1615920620576255,-4,-2,-1,-4,20,0,5,1
1615920620584341,1,-2,-4,-1,-4,-13,1,1
1615920620584341,1,-1,1,2,2,-1,-20,-6
1615920620599302,9,6,4,6,9,8,22,7
1615920620599302,1,-2,-3,-3,-21,-12,14,3
1615920620600301,0,1,2,1,6,-2,13,-4
1615920620600301,0,-1,-4,-6,-15,-12,-34,3
1615920620615260,-3,-2,3,4,12,7,3,-4
1615920620615260,0,0,8,0,-21,-2,2,0
1615920620621244,0,2,0,5,45,3,-4,0
1615920620621244,2,-3,-6,1,-8,-1,48,18
1615920620636304,-3,0,-2,-2,-6,-4,-56,-16
1615920620636304,-3,-1,-2,5,8,5,5,-4
1615920620644312,-7,-1,-1,-8,-5,10,3,-1
1615920620644312,-3,-2,-5,-1,11,-8,11,-3
1615920620668223,-1,-2,-3,-2,-3,-2,-12,-2
1615920620668223,1,1,2,-4,4,5,-10,-1
1615920620669216,-2,-2,-2,0,-16,5,19,6
1615920620669216,3,3,1,-1,5,-7,-30,-8
1615920620675211,1,-5,-2,-3,-10,3,9,1
1615920620675211,-2,0,-3,-4,13,-1,-15,-1
1615920620681188,1,1,7,13,6,-11,19,0
1615920620681188,-6,-2,2,-3,-8,7,-1,-12
1615920620696168,3,-1,-3,-4,-7,1,37,23
1615920620696168,6,2,-3,2,2,-2,-33,-7
1615920620704115,-2,-3,-1,-8,1,-7,-6,10
1615920620704115,-1,0,5,3,38,12,-4,-13
1615920620720073,5,0,1,-2,-32,-33,-1,-2
1615920620720073,-2,-4,-8,2,-6,4,12,4
1615920620720073,1,2,5,-5,3,-9,-9,0
1615920620720073,-10,-5,-1,-4,0,0,-4,3
1615920620735036,4,4,-4,-2,12,11,1,-2
1615920620735036,-1,2,5,-5,-33,-4,10,2
1615920620741041,-2,-4,-5,-6,6,-8,-27,-8
1615920620741041,3,0,0,-3,-28,0,58,14
1615920620764974,-4,-4,-1,0,0,6,-44,-21
1615920620764974,-2,-1,1,4,15,-19,-8,-8
1615920620765952,2,-1,-3,-5,-12,-2,12,8
1615920620765952,2,-2,-2,1,-5,-10,-5,-4
1615920620779945,-1,-2,-3,-7,-11,-1,12,3
1615920620779945,0,0,4,3,26,5,-14,-4
1615920620780913,0,-1,-10,-3,10,6,0,-8
1615920620780913,1,1,0,0,1,7,-18,-4
1615920620795871,-4,-3,-2,-4,0,-3,25,0
1615920620795871,-7,-5,-6,1,9,-5,-1,-4
1615920620801854,12,7,4,-6,-2,3,0,7
1615920620801854,0,1,-5,2,6,1,-17,0
1615920620816847,-2,0,0,1,-2,3,-3,0
1615920620816847,-5,-5,1,-8,-14,-3,-10,1
1615920620823795,0,-1,-5,0,2,0,-14,-10
1615920620823795,0,0,-1,-5,-7,-9,-6,-4
1615920620839776,3,-2,0,4,8,7,7,7
1615920620839776,-1,-1,0,1,-10,-8,11,4
1615920620840778,-4,-3,-7,3,-2,12,-2,-4
1615920620840778,-2,-1,5,-3,-3,-3,-9,5
1615920620855197,-3,1,3,2,27,2,3,-8
1615920620855197,0,-1,0,0,-47,-2,21,8
1615920620861185,-3,-1,-4,-5,-31,4,-26,-12
1615920620861185,-9,-10,-4,-7,-7,3,14,-3
1615920620884250,3,4,-1,8,11,1,2,1
1615920620884250,1,-3,-3,-2,-8,4,2,4
1615920620885243,-4,-2,0,-5,-4,-8,32,8
1615920620885243,-3,1,1,0,-7,-13,-34,-11
1615920620899232,0,0,-2,-5,-13,-1,-11,0
1615920620899232,-10,-3,-5,0,-14,-3,7,-7
1615920620900204,-2,-1,2,-2,13,9,1,0
1615920620900204,2,-1,0,-1,5,-7,-1,0
1615920620915294,-2,-2,-4,-1,22,1,2,0
1615920620915294,-3,-3,0,2,-10,10,5,-1
1615920620921268,2,0,-5,-3,-25,-6,-1,-2
1615920620921268,0,1,-2,1,12,10,9,1
1615920620938194,-2,-1,-1,-2,5,-11,-18,4
1615920620938194,0,-1,-4,-16,4,6,0,-7
1615920620944179,-11,-5,-2,7,13,-2,4,-1
1615920620944179,7,4,-6,1,-7,-1,10,3
1615920620959407,-5,-1,11,-1,-14,-6,-28,-13
1615920620959407,1,0,-2,5,20,-10,-2,4
1615920620966084,4,0,0,3,0,-1,-11,1
1615920620966084,6,-3,-1,-3,-1,-10,3,2
1615920620975065,-7,-1,-1,1,-5,-1,16,1
1615920620975065,2,4,2,-1,-12,-7,-1,3
1615920620981051,-3,-3,1,5,23,7,-9,-7
1615920620981051,-1,0,-2,-2,-16,0,12,2
1615920620996005,2,-2,-7,-3,32,3,11,5
1615920620996005,-3,-1,8,-2,-54,-6,-24,-9
1615920621011961,0,2,1,3,21,1,11,5
1615920621011961,-5,-2,-2,-3,-56,-13,-15,-9
1615920621018947,-3,-1,-3,1,11,-5,8,-1
1615920621018947,-1,0,-1,4,40,7,16,15
1615920621026925,3,0,-6,2,-17,-7,-47,-13
1615920621026925,0,0,7,-1,2,7,16,12
1615920621051855,-6,-5,-5,2,-11,-8,-21,-12
1615920621051855,5,0,1,-2,-10,3,7,-1
1615920621052852,-5,-1,5,0,1,-11,11,4
1615920621052852,-9,-1,-2,2,22,6,-10,-4
1615920621056845,1,0,0,-4,-22,-5,5,4
1615920621056845,-2,0,-4,0,22,5,2,-4
1615920621063826,-2,-1,0,-8,7,-1,15,1
1615920621063826,1,-2,-1,2,21,13,1,-6
1615920621080550,-1,-3,2,-4,-39,-7,15,6
1615920621080550,1,0,-5,-6,16,7,13,1
1615920621086536,2,1,7,8,8,7,-13,-6
1615920621086536,-1,-4,-2,0,-45,-26,15,-4
1615920621095510,-5,-4,-5,0,9,16,-14,-3
1615920621095510,4,5,2,3,7,-11,-8,-2
1615920621117457,-3,-2,-8,-5,15,3,14,4
1615920621117457,-4,-2,0,0,12,-2,-5,-1
1615920621119447,7,0,0,-2,-5,0,14,3
1615920621119447,-3,-1,0,4,6,-22,-35,-14
1615920621124437,-4,-5,-1,-2,-13,2,6,-2
1615920621124437,-1,-3,-5,-7,-8,2,-8,-2
1615920621147519,5,1,0,-1,23,-1,-2,1
1615920621147519,-2,-1,-4,-1,14,8,5,2
1615920621147519,3,1,5,-3,-11,-7,-4,0
1615920621147519,2,-2,-3,1,7,-2,-18,8
1615920621162486,-3,0,-1,-2,-11,11,8,-6
1615920621162486,1,-3,-6,3,19,-11,-16,-7
1615920621162486,-6,-1,-2,2,-4,-9,-5,-1
1615920621162486,4,6,-5,-7,6,17,11,3
1615920621176452,1,-2,5,5,10,-5,-2,2
1615920621176452,-1,-2,-5,-12,-21,8,6,2
1615920621183494,-2,-2,-4,-2,-11,-7,10,3
1615920621183494,-9,-5,3,1,7,1,-32,-18
1615920621198457,2,3,-5,-4,-8,-3,7,2
1615920621198457,0,0,2,-2,-11,7,9,-1
1615920621206437,0,-4,-2,-5,-22,-8,-3,0
1615920621206437,4,0,-3,-1,9,7,23,7
1615920621222394,-3,0,12,2,-2,-7,-20,-5
1615920621222394,0,0,-3,-4,-14,4,3,-1
1615920621223388,3,0,-6,-1,6,-6,-20,-5
1615920621223388,-2,1,4,1,14,8,28,1
1615920621236086,-2,0,-6,-4,3,-1,-2,-2
1615920621236086,-3,1,3,4,-1,-14,-1,-1
1615920621252142,-3,-3,-2,-2,-15,-3,1,-2
1615920621252142,-5,-3,-7,-5,4,-2,-8,-1
1615920621259030,3,-1,-1,-1,-15,-5,3,2
1615920621259030,0,-1,1,-2,3,6,14,-3
1615920621267024,0,3,-2,1,24,-1,-3,0
1615920621267024,1,1,4,-1,11,-8,0,3
1615920621281964,-3,0,-5,-5,-21,2,-12,-6
1615920621281964,0,-3,-1,-2,-4,-2,-7,5
1615920621282961,2,0,5,6,4,3,-1,-5
1615920621282961,-2,-4,-6,-8,-23,0,-11,-1
1615920621296924,-1,-2,-1,1,-4,-5,7,3
1615920621296924,-2,-3,-4,-4,23,-1,-15,-5
1615920621303906,-1,2,-2,-6,-11,5,17,4
1615920621303906,1,-4,-4,-3,-15,-3,-9,-2
1615920621320860,-3,-3,-6,-5,-11,7,-5,-1
1615920621320860,-4,-3,2,3,16,-2,-30,-1
1615920621326848,9,-3,-5,-2,14,6,8,0
1615920621326848,-10,-5,0,1,-2,-4,3,-2
1615920621341805,2,5,2,4,22,6,0,5
1615920621341805,0,-2,-4,-10,-31,-19,6,-3
1615920621342804,-1,1,0,7,10,3,4,-1
1615920621342804,1,1,4,3,19,0,-12,-4
1615920621357761,-2,-3,-2,-2,-7,5,10,2
1615920621357761,0,1,2,3,12,15,5,2
1615920621363745,0,0,-2,-4,-7,-6,6,7
1615920621363745,-1,1,0,3,-8,4,2,-8
1615920621378710,-5,-3,-3,-1,2,1,-12,-1
1615920621378710,-1,3,3,1,3,-3,-1,-1
1615920621386705,-2,-1,-1,-11,-25,0,-11,-2
1615920621386705,3,1,0,8,34,7,7,4
1615920621402641,3,1,-8,-4,-50,-10,-2,-4
1615920621402641,-1,-1,10,3,0,12,21,9
1615920621402641,-5,-1,-5,1,6,-12,-22,-6
1615920621402641,2,0,3,-2,-5,-5,8,4
1615920621424586,-2,-1,-2,-5,11,1,-10,-9
1615920621424586,-2,-2,1,6,-12,-2,10,0
1615920621425580,-3,-5,0,-4,1,9,1,-1
1615920621425580,3,-2,-6,-4,-20,-8,-20,-4
1615920621439212,-2,-3,4,3,17,1,10,-2
1615920621439212,-2,-2,-8,-1,15,5,9,1
1615920621446204,0,-2,1,-1,-7,5,2,-4
1615920621446204,-1,2,1,-2,-4,-11,-2,-3
1615920621462167,-3,0,2,2,13,-1,-18,-9
1615920621462167,3,1,-4,1,-5,-2,4,2
1615920621463165,-3,-3,2,0,-15,-2,7,-2
1615920621463165,0,-1,-4,1,37,4,-9,-3
1615920621476134,-2,-1,-1,1,8,2,30,6
1615920621476134,5,-3,-5,-8,-35,-8,-25,-5
1615920621484124,1,-2,-6,2,-8,3,-7,-3
1615920621484124,1,1,-4,-5,5,-6,8,7
1615920621499110,-1,-1,5,3,7,-1,2,-2
1615920621499110,-1,-2,-5,0,8,6,-11,-4
1615920621506065,-3,-4,-3,-2,-9,-7,8,2
1615920621506065,-2,-4,-2,-4,-13,5,11,-4
1615920621522033,4,2,0,0,4,-3,-9,17
1615920621522033,-6,-1,1,2,33,0,16,-5
1615920621523025,-2,2,5,9,-5,-8,-17,-8
1615920621523025,-6,-3,2,-6,3,0,-2,-6
1615920621538085,-4,-2,-4,-10,-75,-27,-18,-8
1615920621538085,-1,-1,-2,1,4,-13,-7,1
1615920621544069,-1,0,4,1,19,7,16,6
1615920621544069,1,0,-1,6,-9,5,-12,-2
1615920621559149,-3,-5,-3,-2,13,-1,26,-5
1615920621559149,2,3,1,-4,-15,-4,17,6
1615920621566134,-4,-1,-2,-6,13,5,-16,-7
1615920621566134,7,3,-7,-6,-39,-8,-6,5
1615920621582119,-7,-4,7,7,17,8,-25,-11
1615920621582119,-1,-3,-3,-7,-16,3,15,18
1615920621583117,1,1,-4,6,15,-1,-8,-9
1615920621583117,-4,0,4,-9,2,5,7,2
1615920621596184,2,1,-4,1,2,-9,-3,2
1615920621596184,-2,-1,-4,5,27,-2,-29,-8
1615920621604061,-4,-1,1,-8,-28,-4,2,6
1615920621604061,1,-2,-1,6,10,-9,0,-4
1615920621619021,1,-1,-3,-5,1,5,-16,-4
1615920621619021,-3,-4,3,4,6,25,7,-11
1615920621635002,1,-3,-8,-7,4,-4,21,5
1615920621635002,8,2,0,5,16,-2,9,8
1615920621641959,-1,0,5,0,-37,-1,-37,-16
1615920621641959,-1,0,-9,-3,45,-12,2,-1
1615920621642956,-4,-6,5,0,-38,10,-5,-6
1615920621642956,-1,-2,-3,-2,-8,-3,11,-1
1615920621656947,0,-1,-5,-1,15,10,17,6
1615920621656947,-3,-1,5,-2,-18,-9,9,-4
1615920621663924,2,-1,-5,2,2,-2,-31,0
1615920621663924,-5,-1,6,-4,14,1,-4,-1
1615920621678886,-2,-1,-7,-6,21,8,11,-1
1615920621678886,2,1,-4,-7,-66,-3,-7,-1
1615920621686346,0,2,3,0,17,-3,29,16
1615920621686346,-8,-7,-3,8,5,-11,-39,-15
1615920621702304,-5,-2,-5,-7,12,9,11,0
1615920621702304,-6,1,-3,-2,0,-7,0,1
1615920621703302,-4,-1,-2,-4,16,2,-26,-14
1615920621703302,0,-2,0,4,0,1,19,10
1615920621716375,1,4,4,4,2,3,-11,-5
1615920621716375,2,-3,-1,-3,-24,14,-11,0
1615920621724245,0,-1,-2,-4,3,-15,-12,-7
1615920621724245,-5,-3,-3,-6,-7,-7,0,-3
1615920621739205,3,-2,-2,-1,3,4,13,6
1615920621739205,2,0,2,1,-3,17,36,10
1615920621746192,1,-3,-4,4,30,6,-34,-12
1615920621746192,2,4,1,-7,-43,1,2,-2
1615920621762159,-2,0,0,-1,-6,-2,7,7
1615920621762159,2,-6,-8,-10,-2,0,-6,-3
1615920621769126,2,2,5,2,16,-6,11,9
1615920621769126,-1,-1,-4,0,-14,-4,-7,-3
1615920621778102,0,-1,2,2,7,-2,-4,-1
1615920621778102,-7,-1,1,10,28,-4,-10,-8
1615920621784192,4,4,3,-12,-28,-9,15,12
1615920621784192,1,-2,0,-1,-3,5,-11,-9
1615920621799049,-1,-3,-3,-3,0,-6,9,1
1615920621799049,0,-1,7,6,29,7,-11,-5
1615920621815025,-2,0,-7,-9,-48,-33,10,1
1615920621815025,1,0,-2,8,15,0,0,3
1615920621822007,9,0,-2,0,4,4,13,2
1615920621822007,2,1,-5,-6,30,0,-23,-2
1615920621823004,-3,0,5,2,-26,4,27,2
1615920621823004,1,2,0,-5,-10,-9,-9,3
1615920621837964,-6,-6,-9,-3,-11,-8,-2,-8
1615920621837964,-2,0,3,3,11,-11,-7,1
1615920621843948,0,-1,-5,4,3,6,2,-4
1615920621843948,4,-2,3,-7,-3,18,5,14
1615920621859436,-4,-1,0,-2,-10,-2,-1,-9
1615920621859436,0,0,-2,3,-28,-10,31,15
1615920621867002,-7,-2,-3,-4,9,0,-53,-22
1615920621867002,-2,-1,0,3,1,-1,6,-3
1615920621882886,-2,-1,-2,-4,-8,1,-6,3
1615920621882886,0,0,1,-3,1,7,1,0
1615920621889445,-4,-2,-7,-2,10,-3,23,2
1615920621889445,-3,-3,1,7,16,2,6,-1
1615920621904429,-3,-1,4,-7,-46,-23,-13,-3
1615920621904429,-3,-3,0,3,3,0,-3,-5
1615920621905403,2,1,-1,0,8,3,12,7
1615920621905403,-1,0,-5,-1,6,10,-1,-7
1615920621919365,-6,-3,-2,-2,2,4,0,3
1615920621919365,0,0,-1,-4,-18,-7,-17,-7
1615920621926371,1,-1,4,5,29,8,8,6
1615920621926371,0,-2,2,-1,1,-6,5,-3
1615920621941306,4,1,3,9,11,-2,13,10
1615920621941306,-1,-1,3,-5,-6,8,-23,-15
1615920621949116,0,-3,-2,0,-2,-1,2,2
1615920621949116,-2,-3,-3,0,-3,-9,-8,-3
1615920621958078,-1,2,0,-2,12,2,-3,-2
1615920621958078,-2,-4,-2,6,-11,-1,11,5
1615920621972040,-2,0,5,3,14,5,-2,-2
1615920621972040,-1,-1,-6,-5,1,0,21,-2
1615920621979025,-5,-2,-3,-2,26,0,20,2
1615920621979025,5,1,-6,-3,-31,-13,-18,0
1615920621986646,2,1,4,-6,2,2,-2,8
1615920621986646,-5,-3,0,4,-6,3,-16,-15
1615920622001844,1,0,-1,0,15,-1,-16,-5
1615920622001844,3,0,-2,-2,-6,2,21,9
1615920622008722,0,-4,-3,-4,-4,10,-16,-3
1615920622008722,4,3,4,-1,14,0,5,5
1615920622017754,0,-1,-2,-1,-20,-17,-28,-12
1615920622017754,-13,-1,-3,7,17,1,14,-3
1615920622023683,-1,-1,1,-7,-20,6,7,2
1615920622023683,0,0,0,2,-11,-3,2,0
1615920622047472,2,0,-3,-3,11,6,-8,1
1615920622047472,1,1,5,-2,-8,-6,2,-1
1615920622054455,0,-2,-4,2,25,4,-11,-7
1615920622054455,-5,-2,-4,1,-6,-5,0,-1
1615920622061436,2,1,5,-6,2,-3,10,5
1615920622061436,0,-1,-9,-8,10,-4,2,2
1615920622068628,-4,-2,2,11,-9,6,4,-9
1615920622068628,1,4,0,-5,3,-13,-8,-4
1615920622084879,-1,-6,-5,3,1,8,7,6
1615920622084879,1,1,4,1,2,-1,-16,-6
1615920622085819,2,2,-3,-5,-9,-11,10,1
1615920622085819,5,-4,-6,-2,-5,9,-14,-1
1615920622098784,-3,-1,4,8,14,-12,-3,-11
1615920622098784,-4,-2,1,-8,-17,-2,-8,-4
1615920622106766,0,1,-1,1,9,3,9,2
1615920622106766,-2,-3,0,-1,-21,3,-16,-3
1615920622121727,0,1,-3,-1,26,5,25,3
1615920622121727,0,0,4,-1,-4,-9,-29,0
1615920622128810,0,-3,-6,-2,-6,6,12,-2
1615920622128810,-4,-1,-2,-8,25,8,-13,-10
1615920622144661,3,1,4,4,-1,3,-4,3
1615920622144661,-1,-3,-10,-5,3,-2,-6,-8
1615920622145659,1,-1,1,0,-14,-11,6,11
1615920622145659,-5,-1,2,-2,10,-3,13,5
1615920622158652,1,0,-8,-6,-19,4,-21,-9
1615920622158652,4,0,0,0,12,0,16,1
1615920622166702,-6,-1,-1,-6,-13,1,7,0
1615920622166702,1,0,-2,0,-10,-4,13,3
1615920622181786,1,0,0,5,3,3,-21,2
1615920622181786,0,1,2,-1,-12,-7,8,4
1615920622188703,-7,-2,-5,-1,14,3,-8,-5
1615920622188703,-3,-2,0,-3,-26,-8,34,4
1615920622204660,0,0,1,-1,6,9,-6,-4
1615920622204660,3,4,5,4,3,9,24,16
1615920622205631,-7,-5,-3,0,34,-11,-16,-18
1615920622205631,0,-3,-8,-6,-64,9,-5,1
1615920622218819,-7,-1,4,-3,20,-8,-21,-4
1615920622218819,2,-2,-3,-1,3,4,-9,-3
1615920622226910,1,0,-2,0,7,0,17,3
1615920622226910,1,-1,14,4,-24,-20,-28,-7
1615920622241993,11,4,2,5,-5,3,10,10
1615920622241993,-9,-5,-6,-3,-3,5,10,-4
1615920622256953,3,2,0,-7,-15,0,0,0
1615920622256953,-4,0,5,8,31,-2,-18,-1
1615920622265030,-1,-1,-5,-3,-25,-5,21,0
1615920622265030,3,2,2,1,2,-13,1,1
1615920622265030,-1,-5,-3,-4,19,-1,0,0
1615920622265030,-1,1,-4,4,15,5,-23,0
1615920622278895,-6,-3,5,-4,-6,-7,4,-13
1615920622278895,1,-2,-6,0,11,5,-14,-1
1615920622286874,6,2,7,2,-15,-8,10,5
1615920622286874,4,2,-3,-4,7,0,2,2
1615920622301932,6,-1,1,1,5,-1,-5,6
1615920622301932,-11,-6,-2,-3,-11,5,-9,-11
1615920622309506,7,4,-2,0,-25,-10,9,0
1615920622309506,-3,-4,-1,-1,42,-4,0,-2
1615920622324916,0,0,-2,-4,-28,4,-2,4
1615920622324916,-2,-5,1,5,-5,-4,5,-4
1615920622325814,0,2,2,1,2,3,-10,0
1615920622325814,1,2,-2,-4,-6,10,-6,0
1615920622340929,-12,-6,-7,-2,11,-6,-7,-14
1615920622340929,6,3,-3,-4,0,-6,6,4
1615920622346917,-5,-4,0,2,-49,7,-5,-1
1615920622346917,-2,2,0,-10,17,1,-2,0
1615920622361993,-1,-5,-9,-1,-13,-10,3,8
1615920622361993,1,-1,1,-4,-9,16,17,-3
1615920622368969,0,-3,-2,3,22,-9,-23,1
1615920622368969,-6,0,-5,0,3,2,26,1
1615920622385005,1,2,4,0,-2,-2,1,2
1615920622385005,-1,-2,-8,-5,-1,-2,-2,-4
1615920622385925,-7,-5,0,0,13,5,9,5
1615920622385925,3,-2,-3,0,-9,-8,-28,-13
1615920622398918,-2,-1,0,-5,-4,15,3,1
1615920622398918,-2,0,4,2,-1,-12,-4,6
1615920622406941,-4,-3,-5,-4,-1,-1,-11,-12
1615920622406941,-1,-2,-1,0,-10,-6,-2,-6
1615920622430007,1,2,0,-3,-42,-17,-9,0
1615920622430007,-3,-2,-5,-2,17,11,-3,0
1615920622431004,-4,-1,-2,-4,-11,-4,-5,1
1615920622431004,-9,-3,-2,4,15,-2,10,-2
1615920622444903,2,3,-3,-8,-15,0,-1,6
1615920622444903,0,-1,2,5,-16,-1,-12,-1
1615920622445863,-1,1,-2,-1,31,-1,4,2
1615920622445863,1,1,2,-1,-6,4,-5,-9
1615920622458973,-3,-1,-2,-2,11,-10,2,1
1615920622458973,3,-2,1,0,-3,3,1,0
1615920622466947,7,1,-1,-3,-17,-9,-10,-9
1615920622466947,7,-1,-2,-2,-6,0,6,5
1615920622481913,-6,-4,-3,6,58,18,6,0
1615920622481913,4,3,1,-8,-20,-4,12,2
1615920622488795,-5,2,1,6,-46,-12,-36,-5
1615920622488795,-4,-3,-4,-7,-6,-4,24,6
1615920622504783,-1,-1,0,4,13,5,-2,-3
1615920622504783,-2,0,-4,3,23,1,6,-2
1615920622505750,-3,0,5,-2,10,12,8,10
1615920622505750,0,2,-1,0,-14,-6,-7,-1
1615920622518758,-1,-4,-5,-4,-2,-8,-8,-2
1615920622518758,-3,-4,2,-4,2,1,-10,-6
1615920622526741,4,3,-3,0,-1,-1,7,1
1615920622526741,-1,-3,-3,0,-2,-10,1,2
1615920622541697,-7,-5,-2,-2,-18,6,8,-7
1615920622541697,5,4,0,2,11,-3,-16,-3
1615920622548825,3,0,2,0,3,5,9,0
1615920622548825,2,0,-3,-5,-9,15,10,8
1615920622565224,-2,-2,-2,-5,-11,-19,-4,0
1615920622565224,-7,-4,-1,1,35,3,-5,-10
1615920622572124,0,-3,-4,-5,-51,-6,-1,-13
1615920622572124,-2,0,0,6,-10,-2,-28,1
1615920622579095,4,1,3,-8,-14,10,7,4
1615920622579095,-1,-1,8,3,5,-10,-6,-5
1615920622586073,-2,-5,-13,1,31,2,7,5
1615920622586073,1,-1,8,1,0,2,-9,-7
1615920622603028,2,1,1,3,-6,-4,1,1
1615920622603028,-2,0,1,-2,-17,3,-2,1
1615920622609118,-4,-5,-6,-7,-21,-3,-2,-3
1615920622609118,-1,-2,-5,0,30,9,10,1
1615920622624969,0,1,-1,-2,11,1,-9,0
1615920622624969,2,0,-1,2,3,-3,-9,4
1615920622625966,2,3,1,1,-5,-9,13,1
1615920622625966,-6,-2,-6,-7,-8,-5,-17,-6
1615920622638931,-1,1,4,5,16,15,33,2
1615920622638931,1,-2,-7,-3,-4,-12,-37,-3
1615920622654889,-9,-2,1,0,13,16,11,2
1615920622654889,6,3,1,-3,24,-9,-5,4
1615920622661870,2,1,-2,0,-20,-11,-7,-3
1615920622661870,-4,-3,-1,-3,-10,0,16,-2
1615920622668852,2,-2,-3,-2,23,-1,-10,-1
1615920622668852,-4,1,4,13,-6,-2,10,-1
1615920622685166,-3,-3,-4,-3,15,6,2,6
1615920622685166,-7,-2,7,-4,-3,-2,-3,-6
1615920622685166,5,4,0,-5,-8,-3,-23,1
1615920622685166,5,-4,-5,-5,-20,4,20,0
1615920622701028,-3,1,-3,-1,7,-23,-7,-4
1615920622701028,0,-4,-4,-2,-2,9,23,14
1615920622707011,-3,-2,1,-5,1,-2,-28,-14
1615920622707011,1,0,6,1,-14,-8,9,6
1615920622721238,-4,-5,-4,-4,7,4,6,-8
1615920622721238,-2,1,-7,1,-9,-3,-3,-2
1615920622729316,-3,-6,2,-2,-2,3,24,10
1615920622729316,1,0,1,-8,20,9,-29,-17
1615920622744182,0,-2,0,4,-13,9,0,-4
1615920622744182,-3,-1,-6,-5,5,-12,1,-3
1615920622745175,0,0,7,7,1,-2,-4,-1
1615920622745175,-1,-1,-4,1,11,7,9,7
1615920622759258,-3,-3,0,2,-2,-5,-16,-2
1615920622759258,2,3,-2,-5,-8,-7,15,0
1615920622766243,-12,-5,-4,-1,-5,-5,-6,0
1615920622766243,1,0,0,-3,11,2,-1,-4
1615920622781094,10,-2,1,1,0,0,20,8
1615920622781094,-4,-3,3,5,28,13,3,1
1615920622789096,2,-1,-3,-2,-3,-18,22,8
1615920622789096,-5,-3,-8,-11,-20,-15,-59,-17
1615920622805056,2,4,-1,2,22,2,-1,3
1615920622805056,-1,-4,1,-3,-12,7,10,-1
1615920622806028,1,0,1,4,14,1,-8,7
1615920622806028,-4,0,3,0,-12,13,11,-4
1615920622818992,-3,3,2,2,-7,-30,5,1
1615920622818992,0,-1,-1,-2,-29,-1,-12,-3
1615920622827065,5,4,1,-10,18,7,5,-2
1615920622827065,-1,-4,-1,3,2,-1,3,4
1615920622841068,-6,-2,-3,-1,-3,5,2,-6
1615920622841068,3,0,0,-1,-31,-9,0,-2
1615920622849463,11,4,-2,4,20,6,4,1
1615920622849463,-1,0,4,6,-31,-13,17,4
1615920622864253,-4,-2,-1,-11,3,8,-30,-8
1615920622864253,-2,-5,-5,-1,32,4,5,2
1615920622872156,-2,0,-4,-1,-15,-4,-14,-9
1615920622872156,4,0,-1,6,-1,0,8,16
1615920622879214,-5,-1,3,1,12,4,7,-10
1615920622879214,2,2,-2,-3,-22,-2,1,-1
1615920622886095,-3,-3,-3,-3,3,4,1,0
1615920622886095,-4,-5,-7,0,18,-2,9,3
1615920622901153,2,-2,-1,1,-22,1,-21,-1
1615920622901153,0,2,4,3,8,2,17,6
1615920622909066,-1,-1,-4,-1,-7,1,-30,-21
1615920622909066,-3,-1,0,-2,-2,-9,21,8
1615920622924095,0,-3,-1,4,-1,4,4,2
1615920622924095,-1,1,-2,-6,-7,-5,-17,-6
1615920622933068,-1,-2,1,2,14,-7,10,5
1615920622933068,-1,0,-7,0,45,4,-8,-7
1615920622938954,2,2,6,-7,-34,-2,-3,4
1615920622938954,6,1,1,10,-4,-1,19,15
1615920622946937,-13,-2,1,-8,5,19,-18,-11
1615920622946937,-1,-5,-1,1,21,9,-7,-1
1615920622961041,0,-3,-5,-2,-16,-26,-2,-2
1615920622961041,1,0,0,-1,2,11,-6,1
1615920622969020,1,0,0,0,-3,-17,-9,-4
1615920622969020,0,0,1,1,-3,5,6,-1
1615920622993953,-5,0,-6,-2,9,2,-16,-2
1615920622993953,-2,0,0,2,-1,-1,6,-5
1615920622994951,2,0,0,1,-11,-5,24,12
1615920622994951,-4,-5,-1,-3,0,3,12,2
1615920622999089,2,2,-4,-2,-8,8,-10,-7
1615920622999089,0,-2,2,-4,-17,-11,-21,-8
1615920623007073,-1,-2,-6,-1,3,-2,-3,0
1615920623007073,0,2,2,-2,-30,-14,-7,5
1615920623021032,0,0,6,5,9,7,25,2
1615920623021032,-9,-4,-2,-7,3,-1,-20,-9
1615920623029015,0,2,0,4,-14,-4,-47,-1
1615920623029015,-1,-3,-3,-2,16,3,13,0
1615920623043971,-3,0,-4,-2,-16,5,0,6
1615920623043971,-3,-3,-2,-3,2,-15,2,-1
1615920623051951,-3,-4,1,4,3,8,7,-2
1615920623051951,5,2,-2,-3,6,-10,-2,-1
1615920623067911,0,1,8,6,32,3,-12,-5
1615920623067911,-4,-4,-9,-7,-6,9,5,4
1615920623068905,4,1,6,-1,8,7,12,5
1615920623068905,-3,1,3,-2,-20,-12,-36,-16
1615920623089848,-1,-2,-9,-15,-7,3,-2,-2
1615920623089848,1,2,1,6,8,-6,4,1
1615920623090846,-2,-4,-1,-3,-8,-2,12,1
1615920623090846,7,-3,-2,-1,-3,13,-7,-3
1615920623112791,-6,1,-2,2,9,-5,1,-1
1615920623112791,-2,-3,0,-1,-11,-9,-7,-7
1615920623113784,1,-3,-10,-7,-16,-2,6,3
1615920623113784,-3,-1,9,7,3,1,14,0
1615920623127785,1,-1,-4,-7,-12,-6,-5,-3
1615920623127785,0,2,0,3,4,2,11,1
1615920623127785,-2,0,2,2,11,-1,-9,-6
1615920623127785,-6,-5,-8,-4,-8,4,15,-2
1615920623141750,3,0,2,4,-7,-15,-4,1
1615920623141750,1,1,-2,-3,18,11,2,1
1615920623156734,-1,-1,1,-2,-20,-13,-12,-5
1615920623156734,-3,1,-1,-4,4,14,-3,-5
