timestamp,emg1,emg2,emg3,emg4,emg5,emg6,emg7,emg8
1615920625971302,0,-1,3,1,-44,9,-7,5
1615920625971302,-4,-4,-5,-8,1,7,5,-6
1615920625972324,-1,-3,1,0,52,-6,-38,0
1615920625972324,-3,-1,-2,-2,-22,-14,7,-7
1615920625973296,-2,0,-1,0,67,-10,-35,-1
1615920625973296,-4,-5,-5,1,26,-4,20,-10
1615920625976289,0,-2,-2,0,35,5,5,3
1615920625976289,-2,0,0,-1,16,0,3,-3
1615920626008204,3,3,2,6,49,4,19,1
1615920626008204,-2,-1,-2,-8,-12,-6,-30,-11
1615920626009205,1,1,1,-3,-5,1,2,1
1615920626009205,-3,-1,-3,2,18,0,-2,-4
1615920626015185,-2,-3,-6,1,12,31,16,0
1615920626015185,2,3,7,1,-78,-18,-20,-5
1615920626016186,-1,-1,-5,0,-30,3,12,7
1615920626016186,2,1,1,-7,-3,-23,-8,1
1615920626039170,-3,-4,-5,-8,-88,13,-2,1
1615920626039170,-1,0,1,7,6,7,10,0
1615920626039170,-3,-1,0,3,2,-3,5,-7
1615920626039170,1,-1,-3,-7,-59,3,-5,9
1615920626052136,-3,-5,-3,1,36,11,-4,-3
1615920626052136,1,-1,-1,-2,-45,-1,-1,4
1615920626067195,-2,0,3,10,10,6,18,-1
1615920626067195,4,4,3,-3,-11,-1,5,15
1615920626075074,1,0,-6,-3,24,-8,10,-8
1615920626075074,-4,-2,3,6,14,20,9,-1
1615920626076077,1,-2,3,-8,12,-10,-16,-3
1615920626076077,-2,-1,2,6,61,16,34,0
1615920626089059,1,-1,0,-3,27,-21,-9,4
1615920626089059,0,-2,-5,-3,15,-17,-3,0
1615920626096626,-3,-1,-8,-5,-31,0,-5,-1
1615920626096626,-2,-2,6,16,-25,-2,-24,-9
1615920626111591,-1,2,4,-5,32,2,10,6
1615920626111591,3,0,-4,-7,43,7,-17,1
1615920626119565,-2,0,-5,-2,24,-12,21,-6
1615920626119565,0,2,1,-3,-85,-14,-12,14
1615920626135523,0,-1,0,3,11,17,1,4
1615920626135523,0,-1,0,-4,7,0,13,-1
1615920626150482,-1,-5,-2,-3,-14,-1,-6,-8
1615920626150482,-4,-3,-6,-8,12,-23,-8,-11
1615920626152477,-1,0,3,0,-60,-16,-4,1
1615920626152477,0,2,4,15,8,13,2,0
1615920626156491,-1,-1,8,-9,-28,-17,6,2
1615920626156491,-3,-3,-7,-4,30,16,-3,-6
1615920626171426,-1,-2,-1,2,29,-4,-25,-4
1615920626171426,-4,-3,-10,-10,-85,-32,5,-5
1615920626180421,-2,0,-1,4,-28,-19,-5,0
1615920626180421,0,-3,-4,-4,7,-6,7,-5
1615920626195363,2,1,3,4,-8,-3,9,3
1615920626195363,-2,-3,0,-5,11,1,-66,-11
1615920626195363,0,0,-7,-3,-9,-20,13,4
1615920626195363,-2,-1,4,4,3,3,8,-4
1615920626209326,0,0,-6,0,45,3,-19,4
1615920626209326,-1,2,3,2,14,8,27,-7
1615920626216329,2,1,-1,-2,-17,8,-13,5
1615920626216329,-3,-3,-1,2,79,-3,-21,-13
1615920626231266,2,-2,1,-2,-72,5,5,-3
1615920626231266,0,-4,-8,-13,50,20,18,4
1615920626240241,-1,-1,-2,-1,10,-7,-23,-7
1615920626240241,-2,0,-2,-4,-27,15,25,2
1615920626255241,-2,-1,1,4,3,11,4,0
1615920626255241,-3,-1,-2,2,7,-9,-29,-3
1615920626255241,2,1,3,-1,1,18,2,3
1615920626255241,0,-3,-5,-4,-4,-8,5,6
1615920626269205,-4,0,-2,-1,19,-9,-7,-10
1615920626269205,3,4,8,3,-104,-9,10,5
1615920626285161,-1,-3,-6,-1,61,30,13,4
1615920626285161,0,2,6,5,-14,-5,-18,-7
1615920626291145,-3,0,-4,-5,21,10,5,-1
1615920626291145,1,2,8,11,15,-16,21,5
1615920626300125,-2,-4,-7,-13,-47,12,0,4
1615920626300125,2,-1,-3,-3,-10,-15,4,1
1615920626315410,-2,-3,-3,-3,-43,-29,7,2
1615920626315410,-2,-3,-4,-2,15,1,-4,-3
1615920626316308,-1,2,1,16,75,23,-5,-6
1615920626316308,2,4,7,-7,-35,13,9,6
1615920626330270,-2,-1,-1,1,0,2,8,-7
1615920626330270,-5,-1,-4,0,13,-7,1,1
1615920626353209,-3,-4,-4,3,24,7,-8,-3
1615920626353209,-1,1,-3,-1,12,-26,4,-9
1615920626354206,2,-2,0,-2,53,15,10,7
1615920626354206,0,0,-2,-5,-10,6,22,2
1615920626367302,-1,-1,1,5,-11,-10,-8,-5
1615920626367302,-1,-1,-2,-5,1,2,-24,-2
1615920626375277,2,-1,0,5,-23,2,26,5
1615920626375277,-3,-3,-8,-7,16,-1,-20,-5
1615920626375277,-1,4,13,7,-2,-1,-4,8
1615920626375277,-3,-8,-9,-5,6,15,8,-1
1615920626390138,0,-4,-6,-5,-6,-17,-20,-7
1615920626390138,2,1,3,2,6,3,27,10
1615920626397134,-1,1,-7,-5,-75,-14,-2,-7
1615920626397134,0,2,3,-2,-31,4,4,4
1615920626412185,-2,-1,-1,1,-1,-25,-27,-4
1615920626412185,-3,-5,-2,-4,24,-7,11,-3
1615920626421077,3,-2,0,-7,-70,-11,21,14
1615920626421077,-3,-2,-1,6,41,13,-20,-9
1615920626437043,-1,-3,-6,-6,9,10,7,-3
1615920626437043,-1,-1,-1,0,-7,-13,-35,-9
1615920626442056,0,1,1,2,24,5,8,-3
1615920626442056,-4,-2,-2,-4,-17,12,4,-3
1615920626449110,-1,2,9,1,-76,-17,-31,-4
1615920626449110,3,1,-1,2,56,6,-11,-6
1615920626456993,0,-3,-7,-6,-14,12,15,3
1615920626456993,0,0,-1,6,14,-3,-14,2
1615920626471960,-5,-2,-3,-6,-17,-6,-10,-11
1615920626471960,0,0,-2,3,21,13,11,6
1615920626487207,-3,-2,2,2,-53,-17,-19,-10
1615920626487207,2,-1,-4,-3,27,11,34,3
1615920626495161,0,2,1,3,-1,-8,-22,0
1615920626495161,1,1,0,0,17,17,1,0
1615920626495161,-2,-3,-2,-6,45,-9,1,1
1615920626495161,0,0,-1,2,25,-5,-6,3
1615920626517202,1,0,4,4,15,18,7,3
1615920626517202,0,-4,-3,-8,-28,-47,-16,-3
1615920626518100,2,-3,-6,-3,45,19,4,1
1615920626518100,-1,1,15,7,-26,-8,6,-1
1615920626532066,-1,-2,-4,-2,40,-2,0,0
1615920626532066,-1,2,1,1,-28,15,22,7
1615920626540042,-2,-2,-5,0,13,-26,-7,-3
1615920626540042,-5,-3,-1,-5,23,-14,9,4
1615920626555005,5,-1,-4,-2,-26,18,15,7
1615920626555005,-4,-2,2,-7,-69,-32,-9,-7
1615920626555999,-3,0,0,3,31,21,16,-4
1615920626555999,3,4,3,-1,-30,-21,0,-1
1615920626568964,-5,-7,-7,-1,-20,-4,13,5
1615920626568964,0,0,5,1,56,23,-4,-2
1615920626576946,1,0,-3,-6,-2,6,-20,1
1615920626576946,2,2,2,1,19,-4,-10,-5
1615920626592900,-2,-3,-3,-2,28,-5,0,-5
1615920626592900,1,-4,-6,0,-23,8,12,3
1615920626599934,-1,-1,0,-1,3,-19,24,1
1615920626599934,1,-1,0,-3,-7,23,9,7
1615920626614921,-4,0,-4,-8,-93,-23,-37,-7
1615920626614921,-1,-4,-2,2,-1,3,17,0
1615920626615895,-1,0,-4,8,15,12,8,-7
1615920626615895,-4,-1,0,-15,-25,-5,-16,-15
1615920626628883,2,1,4,2,0,-14,22,11
1615920626628883,-1,1,4,8,-16,10,-3,0
1615920626636865,-2,-2,-1,0,1,-10,-19,-1
1615920626636865,-3,-4,-9,4,58,6,-9,-7
1615920626651798,1,0,-5,-4,51,25,3,-3
1615920626651798,2,3,15,4,48,4,-5,3
1615920626659802,1,0,5,2,-23,-33,-19,0
1615920626659802,-1,-2,-5,6,47,22,-7,-3
1615920626673763,0,3,1,-6,4,-9,35,4
1615920626673763,-2,-1,-7,-1,-5,-14,-16,-2
1615920626682749,-4,-2,-1,-5,49,35,27,-2
1615920626682749,-1,-1,-2,0,-48,-17,9,7
1615920626689698,-1,-2,5,2,10,7,-6,-12
1615920626689698,-1,-1,-5,-6,-34,-1,-5,-8
1615920626696302,2,1,3,-2,-15,2,-9,5
1615920626696302,-3,-4,-7,-5,6,5,-2,-6
1615920626711286,-2,-1,-5,3,27,-8,-9,4
1615920626711286,-2,-1,-6,-8,-28,4,-16,-4
1615920626720267,-1,2,14,0,-15,-32,-20,-4
1615920626720267,0,-2,-2,6,36,5,13,-1
1615920626734228,-2,1,-2,-10,-47,-19,-13,0
1615920626734228,-3,-3,9,9,23,20,-3,-3
1615920626742204,0,1,-9,-1,-10,-5,6,0
1615920626742204,-2,0,0,-3,-5,15,15,2
1615920626749189,0,0,2,-5,4,15,-20,-13
1615920626749189,-2,-2,-7,0,40,3,10,1
1615920626757168,-1,0,-1,-3,-80,4,-10,-1
1615920626757168,-1,0,3,0,-6,-15,-8,5
1615920626772123,-1,-3,-2,3,13,17,-9,-5
1615920626772123,-3,-2,-3,-7,-60,-42,-6,-5
1615920626780208,2,0,2,1,19,16,17,4
1615920626780208,-2,-2,-7,-7,-73,-14,-11,-2
1615920626794065,-2,1,11,5,37,14,16,9
1615920626794065,-1,-1,-4,-4,-19,-26,-30,-5
1615920626802611,-1,0,-4,-2,17,4,-7,0
1615920626802611,1,-2,1,2,-26,-8,-20,-1
1615920626809619,-3,-5,-6,2,35,15,11,-1
1615920626809619,0,-1,-1,-5,-13,27,15,0
1615920626816695,-2,-3,3,-4,-8,-7,15,4
1615920626816695,3,2,-2,1,-18,1,-3,-2
1615920626831581,0,1,1,6,-20,-17,-8,12
1615920626831581,-1,-2,-7,-8,32,9,6,-6
1615920626839535,-1,1,-2,6,66,7,8,0
1615920626839535,0,0,5,-1,-22,-3,-3,0
1615920626854709,-5,-5,-5,-10,-61,-32,-12,-2
1615920626854709,-3,-2,-8,5,24,17,5,5
1615920626862630,0,2,8,0,18,11,-5,-1
1615920626862630,0,-1,-2,-3,36,4,-1,-1
1615920626877504,1,2,8,11,30,2,6,-4
1615920626877504,-2,-3,-3,-3,6,-6,3,-1
1615920626878502,1,-3,-2,-3,-89,-3,32,8
1615920626878502,-1,0,-1,3,17,20,-25,-3
1615920626891442,-4,-2,-3,-8,-12,-14,-4,-9
1615920626891442,0,0,0,1,-54,-5,12,5
1615920626899421,2,4,4,-4,74,-8,-7,-2
1615920626899421,-3,-5,-10,-2,-48,-9,16,1
1615920626914405,1,-1,-6,-6,40,23,2,1
1615920626914405,-1,4,9,3,-12,-23,3,-9
1615920626930363,2,-4,-6,1,-25,-5,-4,10
1615920626930363,0,0,-1,-4,-34,-11,-36,-5
1615920626937345,-2,0,4,4,13,9,25,1
1615920626937345,1,-2,-2,-1,59,0,-19,-6
1615920626938318,1,-1,-4,-2,13,-2,0,-3
1615920626938318,-2,0,0,-4,-15,-17,-8,-7
1615920626951282,0,-3,-5,1,7,14,10,9
1615920626951282,1,1,3,6,74,6,-21,-6
1615920626960264,-5,-3,-4,-1,50,3,-9,-13
1615920626960264,-2,-4,-3,-2,-7,3,23,8
1615920626975218,-2,2,2,-3,2,1,-6,-7
1615920626975218,2,-5,-2,-2,-21,-5,1,7
1615920626982200,-2,-2,-8,-3,2,7,-18,-9
1615920626982200,0,2,-1,4,6,-7,-7,3
1615920626997184,-3,0,-2,-9,28,-1,-6,-4
1615920626997184,1,-1,0,-1,-34,0,-19,9
1615920626998157,-7,-7,-6,-3,42,3,26,-10
1615920626998157,-4,-1,-2,-4,8,-13,14,2
1615920627013117,3,2,3,4,-2,-3,-19,-1
1615920627013117,-4,-5,-9,-9,-107,-35,-5,-7
1615920627020117,-1,-1,-1,-2,12,-2,-24,-11
1615920627020117,0,-2,0,-3,35,25,16,-1
1615920627034062,-1,-3,-5,-3,-40,-28,-3,5
1615920627034062,-1,0,-1,-1,49,18,10,5
1615920627042040,0,1,3,-1,-71,-21,-4,9
1615920627042040,-3,-1,1,0,-14,-1,3,-15
1615920627057000,0,-1,-4,1,23,-2,-2,-2
1615920627057000,-1,1,2,3,14,18,39,-1
1615920627057998,2,0,0,-2,31,5,-31,11
1615920627057998,0,-3,-1,2,30,-18,-6,3
1615920627071960,-3,-6,-10,-6,-90,-16,-22,-9
1615920627071960,-1,0,4,-1,50,-2,21,2
1615920627079963,-1,0,-1,0,1,17,6,-3
1615920627079963,-2,-1,3,-1,-14,-8,40,2
1615920627093902,-1,1,1,4,18,1,-15,-3
1615920627093902,-2,-5,-10,-5,11,12,1,0
1615920627102878,0,0,10,0,-48,-15,-9,-10
1615920627102878,1,0,-4,-3,68,3,-7,5
1615920627117838,1,0,-2,0,18,3,31,20
1615920627117838,-3,-4,-5,-2,-56,-12,-13,-20
1615920627124818,0,-3,-4,-4,-4,16,-15,-2
1615920627124818,-2,-1,0,-4,-29,-15,6,3
1615920627131799,-2,-1,-2,2,109,-15,-14,-11
1615920627131799,0,4,7,-7,-22,12,3,4
1615920627147758,-3,-2,-6,2,-11,-12,12,2
1615920627147758,0,-3,-2,6,17,-19,-21,-6
1615920627153742,2,0,7,-9,-70,-15,-1,-3
1615920627153742,-2,0,3,6,38,0,4,3
1615920627162717,-2,-2,-5,-6,-24,0,-5,-5
1615920627162717,1,1,1,2,14,19,-1,-1
1615920627177678,-3,-6,-3,-5,-21,12,-6,-7
1615920627177678,1,0,-4,0,10,-1,7,8
1615920627178675,0,1,4,9,1,0,31,12
1615920627178675,3,1,0,-8,-2,-14,-37,2
1615920627191640,-2,-4,-5,-3,-33,4,2,-6
1615920627191640,-2,3,-2,2,-35,-12,-19,-3
1615920627199626,-2,-3,-3,-1,-44,-2,19,0
1615920627199626,-2,2,0,0,-10,18,7,3
1615920627214579,1,0,1,1,7,-21,-7,-3
1615920627214579,1,0,-2,-2,-17,6,5,6
1615920627222562,1,1,1,6,37,5,-23,-8
1615920627222562,-2,-1,5,3,14,8,14,-2
1615920627237539,-2,-1,-7,-4,-14,18,28,3
1615920627237539,0,0,9,6,19,-12,-23,-6
1615920627244539,-4,-4,-5,-7,-50,5,-28,-3
1615920627244539,-1,0,-5,-1,-20,-10,-9,-4
1615920627252130,1,1,-2,-5,24,18,10,-5
1615920627252130,3,-1,-3,3,37,-9,24,9
1615920627259131,-3,-3,-3,-5,-15,-24,-46,-12
1615920627259131,-2,1,4,6,-15,8,-11,-7
1615920627274097,-1,-1,0,-4,1,1,10,0
1615920627274097,1,-2,-3,-3,2,-1,-4,-1
1615920627282207,-3,-3,-3,-6,52,-13,3,-2
1615920627282207,-2,-4,-5,-1,-71,-10,4,-2
1615920627297056,0,3,4,3,-1,1,4,-3
1615920627297056,0,-1,-2,-2,44,5,-4,2
1615920627298053,-1,-1,-1,4,-17,18,22,2
1615920627298053,2,-3,-6,-1,67,7,24,-3
1615920627312021,-4,-3,6,-3,-42,-23,-54,-3
1615920627312021,-2,-3,-3,-2,23,-9,2,-5
1615920627326979,1,0,-5,5,10,7,-15,-2
1615920627326979,-1,0,-1,-7,-44,-4,25,1
1615920627333956,1,-1,4,4,-27,7,0,-3
1615920627333956,2,5,6,4,-21,-4,-39,-14
1615920627342957,-1,-2,-1,-4,2,-11,3,-2
1615920627342957,-1,-5,-7,-4,1,1,2,2
1615920627356896,1,0,-6,4,22,9,-3,1
1615920627356896,-4,-2,-2,-5,-99,0,12,2
1615920627357893,-4,-4,-4,-8,9,0,-10,-13
1615920627357893,1,1,3,3,15,-13,-10,2
1615920627371855,0,0,-4,-1,28,11,-26,-4
1615920627371855,-1,-3,-1,-3,-32,10,8,-1
1615920627378837,-1,-1,-1,-4,33,1,0,9
1615920627378837,-4,-5,-5,-5,30,-4,-13,-15
1615920627393797,1,3,4,2,6,0,7,15
1615920627393797,0,-2,-8,0,7,-4,4,4
1615920627402772,-2,-1,6,4,85,29,-12,-12
1615920627402772,-2,-2,4,-5,29,6,13,-2
1615920627425711,-2,-3,-9,-5,-27,-10,-9,0
1615920627425711,-3,0,2,8,45,18,-2,-3
1615920627426714,0,3,5,-2,-65,-3,9,2
1615920627426714,0,-1,-2,5,70,-12,0,4
1615920627431696,0,2,3,3,41,-6,-2,-7
1615920627431696,-3,-3,-5,-3,15,12,16,8
1615920627439674,3,3,-1,1,-19,-16,11,4
1615920627439674,-3,-3,-2,-1,21,31,8,-3
1615920627454635,-1,0,0,-1,48,8,0,-10
1615920627454635,-2,-5,-4,-5,-49,2,14,14
1615920627462616,-1,-2,0,2,-12,-14,13,-2
1615920627462616,3,1,-1,-7,-47,-12,-36,6
1615920627477671,-1,-4,-1,1,-25,-20,14,-2
1615920627477671,1,1,2,0,42,3,20,0
1615920627478571,0,-2,-8,-7,-41,-11,-19,-13
1615920627478571,-1,1,2,3,-4,13,-16,-2
1615920627491535,-2,-2,1,-4,-71,-36,24,5
1615920627491535,-2,-2,-6,-2,60,2,-20,-6
1615920627499514,-2,-4,-5,-9,-1,7,44,10
1615920627499514,1,3,0,3,-15,-12,-33,-3
1615920627514475,-1,-4,-4,-5,0,11,1,-5
1615920627514475,-3,-2,-2,1,-41,1,-4,-15
1615920627522453,1,1,-1,-2,-40,-15,10,11
1615920627522453,1,-1,-1,-2,20,7,18,1
1615920627537413,2,2,5,9,-9,8,4,3
1615920627537413,0,-1,-3,-11,-35,-19,13,3
1615920627538410,-1,1,-1,3,48,19,-52,-17
1615920627538410,-1,-1,0,-6,-21,7,22,6
1615920627551375,3,2,-5,-1,23,6,-20,1
1615920627551375,-3,0,2,1,-24,-6,-2,-5
1615920627559403,0,2,6,1,-3,7,-3,2
1615920627559403,-2,-3,0,3,-3,-11,17,2
1615920627575364,4,1,-2,-3,-12,0,13,4
1615920627575364,1,-2,-3,-1,41,-1,-11,-1
1615920627582347,-1,2,8,-1,-54,3,1,2
1615920627582347,-3,-3,-2,2,-40,-39,-13,-9
1615920627596305,-4,-4,-5,-6,-1,12,-3,7
1615920627596305,1,-1,0,4,74,-7,-15,-2
1615920627605281,2,1,2,-2,8,-26,39,16
1615920627605281,0,1,-2,-3,-13,9,-28,-2
1615920627611300,-4,-4,2,3,1,21,16,-10
1615920627611300,1,3,1,-5,-23,-7,-5,7
1615920627627253,-3,-5,-7,3,50,5,-8,-11
1615920627627253,-1,-1,-1,-3,47,-8,11,4
1615920627643234,-2,0,0,-2,58,0,5,-2
1615920627643234,2,-2,-3,-2,40,29,4,3
1615920627644233,0,1,1,4,-20,-13,9,6
1615920627644233,-2,-1,1,-2,-8,19,-11,-6
1615920627656176,-1,-3,-6,-2,9,-16,13,6
1615920627656176,-4,-2,3,-3,-92,-28,-35,-17
1615920627673155,-1,-2,-4,-3,31,18,-2,10
1615920627673155,3,0,-2,0,-5,-1,12,0
1615920627675150,1,1,-1,1,-3,1,-36,5
1615920627675150,-1,2,2,4,50,10,4,-12
1615920627679138,0,-2,-8,-9,-29,-10,-14,-1
1615920627679138,1,3,5,0,65,17,17,2
1615920627694101,-3,-1,-2,4,4,-11,12,-12
1615920627694101,0,1,1,-2,7,14,8,1
1615920627702081,0,-1,-5,1,13,-23,-1,3
1615920627702081,-2,-1,-3,-1,-25,-3,-6,-3
1615920627733967,-1,-2,-1,-6,16,-12,1,1
1615920627733967,-2,-5,3,4,-4,-9,12,0
1615920627734966,2,0,1,2,26,32,1,-5
1615920627734966,2,0,-3,2,-30,-21,10,7
1615920627736960,-2,0,1,-4,-26,8,-18,-3
1615920627736960,-1,-2,0,3,73,26,22,5
1615920627738979,0,-1,-2,1,26,-26,-5,-5
1615920627738979,-1,-2,-6,1,-63,-3,-12,1
1615920627753914,1,2,7,-4,38,13,19,2
1615920627753914,-2,-5,-9,-3,-7,-22,-6,-7
1615920627762913,-4,-2,0,4,-30,-43,-13,-5
1615920627762913,-1,-1,-3,-1,15,9,-5,-9
1615920627776878,0,2,-1,1,31,13,-9,-4
1615920627776878,-1,-1,-3,-5,-69,-16,12,7
1615920627784853,-3,-1,-4,5,18,8,8,-1
1615920627784853,-1,-3,0,-6,-32,-15,-9,-3
1615920627800198,2,1,3,6,43,12,23,4
1615920627800198,-1,-2,-2,-1,-21,-17,-23,-1
1615920627800198,-1,-5,-2,0,-66,-6,23,-3
1615920627800198,-3,-2,-3,-7,-28,-12,5,-2
1615920627814192,-1,0,1,-6,-5,1,-20,-2
1615920627814192,-2,-5,-5,-2,-44,-12,19,-2
1615920627822186,-1,0,2,-1,36,-3,-29,-7
1615920627822186,-1,-1,-6,0,33,8,26,10
1615920627846265,-2,-3,-4,-3,-23,-17,-39,-15
1615920627846265,0,2,1,5,-16,0,25,6
1615920627847163,1,1,2,-6,-10,23,0,3
1615920627847163,-7,-6,0,-6,32,12,-13,-8
1615920627860063,-3,0,-8,-5,-15,17,13,0
1615920627860063,2,1,1,-1,71,-15,-14,11
1615920627861060,0,-2,-2,3,58,12,-6,-2
1615920627861060,-3,0,-2,0,-8,12,-1,-12
1615920627883295,-4,-3,-5,-1,23,-34,-2,-5
1615920627883295,1,0,8,1,-9,10,-17,-5
1615920627884193,-2,0,2,-5,-11,-6,-17,-12
1615920627884193,1,-3,1,2,24,5,-13,5
1615920627897159,-2,0,0,-1,-72,-22,-5,0
1615920627897159,-2,-1,-6,-2,-3,24,-15,-9
1615920627905141,1,-2,-3,-4,2,-8,15,9
1615920627905141,0,5,9,5,-20,15,-32,-15
1615920627920171,0,-2,0,2,36,1,9,7
1615920627920171,-1,-1,-1,-1,-37,-25,-13,3
1615920627921169,-1,-4,-2,2,6,25,23,-5
1615920627921169,1,-3,-9,-6,-33,-16,-6,17
1615920627943184,-3,-1,4,-2,-4,-20,0,-11
1615920627943184,-3,0,-3,-2,34,9,-12,-7
1615920627944183,-5,-7,-6,-8,1,-3,-13,-3
1615920627944183,2,1,1,2,1,0,9,8
1615920627956383,1,-2,-4,2,18,13,17,3
1615920627956383,0,1,-1,-9,-65,-10,-10,0
1615920627965360,1,2,1,5,65,0,-4,0
1615920627965360,-2,-2,-1,-1,7,16,11,-1
1615920627988299,1,0,0,2,-15,6,-9,5
1615920627988299,-1,-3,-5,-4,31,-1,-16,-11
1615920627989296,1,2,-2,-7,-25,12,-8,-2
1615920627989296,-3,-6,-2,-6,26,-4,14,-1
1615920627994283,0,2,-1,0,-49,-9,30,10
1615920627994283,1,0,-1,-1,0,-14,-9,-8
1615920628002262,4,4,5,7,-38,2,-23,5
1615920628002262,-1,-2,2,2,41,-3,-26,-8
1615920628016512,-1,-4,-7,-5,-28,5,12,-5
1615920628016512,-1,-2,2,5,34,22,2,-1
1615920628025452,-2,-3,-5,-7,-97,-1,-4,-3
1615920628025452,4,1,3,2,6,-12,12,5
1615920628039716,0,0,-1,2,65,4,-17,-4
1615920628039716,0,-1,-2,-4,-38,-6,0,5
1615920628040713,0,4,5,5,2,9,23,-7
1615920628040713,-1,-3,-5,1,-17,-34,35,14
1615920628054676,2,-1,0,-3,-16,19,-20,-3
1615920628054676,0,1,7,3,3,-6,17,2
1615920628062407,2,0,0,1,23,-13,4,3
1615920628062407,-1,-1,0,-2,7,8,-1,-7
1615920628085346,0,-3,-6,11,-22,-10,-4,-1
1615920628085346,-3,-3,5,-15,-10,17,-4,6
1615920628086342,-2,-1,-1,0,40,-17,-1,1
1615920628086342,-1,2,-6,1,0,16,16,-9
1615920628100322,-1,-1,5,-4,-5,6,-28,10
1615920628100322,-1,-2,-12,-1,53,11,2,5
1615920628100322,-7,-8,-1,0,41,-38,-11,-5
1615920628100322,-2,0,-1,-7,-20,-7,28,3
1615920628114264,-4,1,-3,0,-15,5,-51,-20
1615920628114264,1,1,-1,7,9,9,20,-2
1615920628122244,1,0,-1,-8,-24,0,9,12
1615920628122244,0,0,1,4,49,3,-11,-1
1615920628137205,-3,-2,4,-4,46,1,-5,-7
1615920628137205,0,-3,-4,0,-52,-10,31,-2
1615920628152480,-1,-1,-1,2,-22,15,1,-2
1615920628152480,0,-1,4,-5,-19,-4,-13,-6
1615920628160583,0,-2,-3,1,-26,6,-31,0
1615920628160583,-2,-2,-3,-8,2,-18,-3,1
1615920628161576,0,-3,-5,-7,19,24,25,0
1615920628161576,1,-1,-4,5,-29,14,-20,0
1615920628174676,0,0,4,1,9,2,25,5
1615920628174676,-3,-1,0,1,6,-15,-18,0
1615920628182539,-2,0,-2,0,-8,1,-3,-9
1615920628182539,-3,1,0,2,-2,2,-6,1
1615920628196596,0,-4,-2,-9,-57,-25,10,-2
1615920628196596,0,1,3,6,35,10,-27,-13
1615920628204480,1,-1,0,0,17,10,-32,-1
1615920628204480,-1,0,0,0,7,-3,6,-3
1615920628220437,-2,1,1,12,-5,4,10,9
1615920628220437,-4,-3,-1,-13,34,-42,-12,-5
1615920628221434,2,0,2,2,-2,-9,-15,-2
1615920628221434,0,3,0,4,13,-3,8,1
1615920628234145,-2,-4,-5,-4,-5,8,-2,-5
1615920628234145,2,5,4,-1,10,-4,24,4
1615920628242099,-1,-2,-5,-2,-31,-5,6,2
1615920628242099,-2,-1,5,2,32,5,-23,1
1615920628257061,-3,-3,-6,-13,-79,-16,28,-10
1615920628257061,-1,-3,-5,7,6,11,-5,7
1615920628265071,-1,0,1,-1,26,-4,12,1
1615920628265071,-1,0,-6,2,-46,0,-14,-6
1615920628280095,0,-5,-5,-2,86,-5,4,7
1615920628280095,1,0,4,2,-24,39,-20,-9
1615920628280994,-2,0,-5,-4,-26,-7,24,-9
1615920628280994,2,0,6,2,10,-8,5,17
1615920628293983,1,1,0,3,8,12,8,-9
1615920628293983,1,0,-7,-8,-19,-6,-15,-3
1615920628302059,1,2,6,18,23,8,15,-3
1615920628302059,-1,-3,-6,-20,-88,-23,7,17
1615920628325987,-2,1,13,1,33,-11,-5,-9
1615920628325987,-1,-4,-5,1,-48,-4,8,-2
1615920628325987,-2,-4,-3,-6,15,17,-6,10
1615920628325987,-3,-3,-6,-2,26,-12,-38,-18
1615920628339945,2,2,3,-2,-7,16,-15,4
1615920628339945,0,1,-3,4,1,-27,28,16
1615920628347936,-2,1,5,-1,-13,3,-23,-12
1615920628347936,-1,-2,-4,4,18,-18,5,-8
1615920628353783,1,-1,-7,-7,-8,0,16,5
1615920628353783,2,4,6,7,25,11,-1,-4
1615920628362870,-2,-4,-6,-6,11,-5,0,14
1615920628362870,0,0,1,0,17,39,13,-4
1615920628376726,-2,-4,-6,-6,-83,-48,-12,1
1615920628376726,-2,-2,5,11,12,7,-4,-11
1615920628384701,-2,-2,-4,-15,-27,-1,8,-2
1615920628384701,0,0,-1,-4,27,11,-5,-7
1615920628399767,-3,-3,-5,1,5,0,19,0
1615920628399767,-6,-5,-3,-6,14,10,-67,9
1615920628400659,-2,-1,-4,-1,-32,-3,6,0
1615920628400659,0,1,8,3,-28,-6,4,-7
1615920628414727,3,3,-3,2,23,15,3,9
1615920628414727,-2,-2,-3,-6,-66,-52,22,-11
1615920628421602,1,-2,-2,3,-15,4,-7,-5
1615920628421602,-1,-4,-5,-4,-39,-2,12,19
1615920628438588,-1,1,6,5,10,6,-35,-14
1615920628438588,-1,-2,-7,-7,22,18,15,1
1615920628444572,1,2,5,4,-15,-21,12,2
1615920628444572,-1,-2,-6,-4,-17,-16,5,-8
1615920628460108,0,-1,-2,8,14,8,-3,4
1615920628460108,2,-1,-2,-4,37,33,13,-1
1615920628467089,-1,-3,-4,-6,-6,-9,0,11
1615920628467089,-1,1,-2,1,45,-1,-14,-5
1615920628474070,2,2,6,-1,27,15,22,5
1615920628474070,0,-1,-2,2,-56,2,8,2
1615920628482220,-1,-3,-6,1,10,-17,2,-12
1615920628482220,-2,0,7,-1,24,8,-10,-7
1615920628497107,-1,-1,0,3,5,13,8,8
1615920628497107,1,-1,-1,-5,9,-3,24,9
1615920628504616,-6,-4,6,3,-13,-7,-11,-16
1615920628504616,0,0,-2,0,14,-6,2,-3
1615920628536500,-2,-4,-3,-4,15,-2,20,0
1615920628536500,-1,-2,-2,-3,-32,-10,-25,-3
1615920628537498,0,-1,4,2,66,15,11,3
1615920628537498,1,1,-3,7,39,-8,-8,1
1615920628538494,-4,-2,3,-13,-34,-10,-25,-10
1615920628538494,0,-1,-6,2,50,15,22,-2
1615920628550161,-1,1,5,0,-28,-9,-16,1
1615920628550161,0,1,-3,2,-5,-14,-5,-18
1615920628557047,-3,-3,-3,-2,12,-7,-25,24
1615920628557047,-2,0,4,0,-1,-7,-28,3
1615920628565156,4,-1,-10,-3,21,7,20,2
1615920628565156,-3,-3,0,-3,37,20,17,4
1615920628579071,2,0,8,6,-3,-8,-29,-13
1615920628579071,1,-1,-6,-3,6,-7,16,0
1615920628587099,1,2,0,3,49,10,-4,3
1615920628587099,-1,-2,-4,-1,-60,-9,-28,-6
1615920628594080,2,-1,-5,0,82,15,43,1
1615920628594080,-5,-3,0,1,55,-3,-7,-5
1615920628602060,0,0,2,1,-9,12,-2,0
1615920628602060,1,0,-1,-2,45,24,-10,2
1615920628616612,-3,1,-4,3,20,-16,26,-3
1615920628616612,0,-1,-1,-4,26,9,-27,-11
1615920628624594,0,-2,-10,-6,-46,11,22,1
1615920628624594,-2,-2,-1,-3,45,-14,-17,8
1615920628639125,0,-2,-2,2,-17,29,19,-1
1615920628639125,-2,-1,-2,2,-2,-24,2,-5
1615920628648034,1,-1,11,2,-19,7,-19,1
1615920628648034,-5,-4,-5,-2,41,-8,-5,-12
1615920628654051,1,-2,-1,-7,-97,-1,0,3
1615920628654051,1,-1,0,-4,-31,-1,-8,4
1615920628661998,-3,1,1,0,13,-15,10,-4
1615920628661998,2,-2,1,0,0,8,5,1
1615920628676979,-2,2,11,1,-3,-23,-10,-9
1615920628676979,-1,-1,-5,5,-17,21,14,2
1615920628684970,1,-1,-6,-7,13,-15,-26,-1
1615920628684970,-2,2,4,3,-32,0,20,-22
1615920628699735,-2,0,-6,-1,9,18,-9,32
1615920628699735,-2,-3,2,-2,-16,-5,-33,-5
1615920628716105,-2,-2,-7,-4,3,-20,6,-7
1615920628716105,0,0,1,-2,-33,-13,13,17
1615920628717053,1,-2,-7,-3,11,11,-17,-8
1615920628717053,-2,-3,0,-2,-75,-6,-7,-8
1615920628722044,1,-1,-7,-3,36,-1,-12,5
1615920628722044,-2,-2,-4,2,30,5,18,3
1615920628736739,0,4,8,0,-1,-12,-9,-13
1615920628736739,-2,-3,-7,-8,16,-7,24,7
1615920628744719,-2,-1,1,-1,-35,8,-20,-13
1615920628744719,-2,-4,-8,-2,-14,6,-2,4
1615920628759677,-1,-1,3,-2,43,-16,1,-6
1615920628759677,-3,-1,2,2,6,5,18,-5
1615920628767670,0,0,0,0,-36,2,-2,2
1615920628767670,-1,-1,1,-2,-24,1,2,7
1615920628782642,0,-1,-8,-1,-18,-2,16,1
1615920628782642,-1,1,4,-6,-22,1,-1,-5
1615920628783617,-1,-4,-4,1,2,-29,5,9
1615920628783617,0,1,3,-6,-32,-2,-18,-4
1615920628796583,0,-4,-7,1,31,-5,-7,-1
1615920628796583,1,3,15,5,18,0,10,3
1615920628804560,-1,0,-3,-1,13,38,12,3
1615920628804560,-2,-2,-3,-4,-8,-48,-10,-2
1615920628819519,-2,1,-3,1,8,1,16,-7
1615920628819519,1,-1,-3,0,15,2,-36,-4
1615920628827518,-4,-3,-8,-5,1,11,6,-7
1615920628827518,-3,-2,-1,5,16,15,-5,30
1615920628842491,-1,-1,-10,-12,-11,-29,-30,-17
1615920628842491,-1,1,15,18,35,3,12,1
1615920628850435,2,0,2,0,-9,-5,-10,2
1615920628850435,-2,-3,-7,-8,12,17,7,-5
1615920628856421,0,-2,0,5,67,8,12,-1
1615920628856421,6,0,-9,-14,-73,5,-2,17
1615920628865394,-1,0,11,2,87,-42,4,-12
1615920628865394,4,-1,-5,2,-2,18,-10,-5
1615920628879379,-2,-2,2,3,13,-2,-2,0
1615920628879379,0,2,-3,1,-4,-9,13,-6
1615920628887341,-2,0,-2,-3,15,-5,4,4
1615920628887341,0,-1,0,-4,-46,3,23,6
1615920628902300,-3,-1,-4,-4,-26,-15,-56,-7
1615920628902300,0,0,1,-3,28,12,10,4
1615920628903295,-4,-3,4,1,-76,-22,-20,-10
1615920628903295,0,2,2,2,-11,-5,-2,-7
1615920628916827,0,-4,2,-7,-17,16,19,-3
1615920628916827,-2,0,-7,1,42,2,-6,-6
1615920628924806,-1,-3,-7,-3,-55,20,-10,4
1615920628924806,-2,1,10,3,16,-6,18,-5
1615920628947927,-3,-1,-4,-3,-36,-25,-25,-2
1615920628947927,3,2,1,-4,-4,-1,10,3
1615920628948920,-2,-2,-4,0,-4,3,23,7
1615920628948920,1,0,0,2,2,1,-42,-11
1615920628962886,1,2,2,2,-51,7,9,6
1615920628962886,-2,-4,-3,5,13,-2,1,1
1615920628962886,-3,1,-1,-2,-3,2,-16,-42
1615920628962886,0,0,-6,-4,-9,2,14,50
1615920628985861,-3,-1,1,4,17,-23,6,-2
1615920628985861,-1,0,-2,-5,-11,10,-46,-16
1615920628985861,-3,-4,-5,-4,5,13,4,5
1615920628985861,0,1,4,-2,-63,-12,-9,-11
1615920628998826,-1,-2,-6,0,25,-5,5,-6
1615920628998826,-2,-1,2,-4,-4,4,10,19
1615920629007802,4,-1,0,3,35,-3,27,11
1615920629007802,0,1,-2,-5,-70,-3,-44,-19
1615920629022766,-1,0,0,2,52,7,28,13
1615920629022766,-2,-2,-4,-1,-48,10,2,-11
1615920629023760,-1,-1,-2,-5,29,0,1,3
1615920629023760,-1,-3,5,3,26,1,4,-5
1615920629045701,2,0,-4,0,-73,5,8,-6
1615920629045701,-2,-1,-5,-7,14,-8,-1,1
1615920629046698,-1,0,1,-5,36,-1,-6,3
1615920629046698,0,-2,-7,7,8,24,0,-10
1615920629059668,-2,-1,3,-8,-5,13,24,3
1615920629059668,-1,-1,2,-1,22,-6,-38,-16
1615920629067642,0,-2,-8,2,-25,-18,-8,7
1615920629067642,-1,1,10,-1,58,3,-4,-7
1615920629090581,0,2,1,1,23,8,-6,2
1615920629090581,0,-1,-2,4,-49,-28,0,-29
1615920629091578,1,-2,-3,-4,25,13,-14,37
1615920629091578,-3,-2,-1,0,0,-22,-10,-6
1615920629096599,2,-2,-2,3,75,18,1,4
1615920629096599,-1,1,5,5,20,-9,37,4
1615920629105203,-2,-2,2,2,-12,-4,-10,-13
1615920629105203,-3,-2,-5,-2,5,-8,21,-4
1615920629119177,3,2,11,-4,-10,12,-3,14
1615920629119177,0,-1,-2,2,66,-16,-12,6
1615920629127159,0,2,4,4,85,1,-14,-4
1615920629127159,-2,-2,-8,-4,-23,-11,0,-2
1615920629142115,-2,-3,-4,0,-10,0,36,-10
1615920629142115,2,-1,3,-2,33,-1,-1,11
1615920629143112,0,-3,-7,-3,-40,5,9,-4
1615920629143112,1,4,8,6,24,8,-7,-4
1615920629157075,-1,-1,-3,-5,-47,-7,-16,-6
1615920629157075,0,-1,-6,-2,9,-3,3,8
1615920629166066,0,1,-2,-6,-34,-17,12,-4
1615920629166066,-4,-7,-7,-2,0,-6,1,-14
1615920629179017,-1,-1,-2,4,-1,-1,16,10
1615920629179017,-6,-5,-4,-9,-104,-6,-36,-11
1615920629188032,0,0,4,3,49,-10,0,-2
1615920629188032,-1,0,-5,-2,31,7,18,0
1615920629203950,-5,-4,-8,-3,-15,-11,-30,-4
1615920629203950,-3,0,3,3,12,8,-33,-6
1615920629204947,-2,0,-4,3,-29,15,4,2
1615920629204947,2,-1,-1,-4,-14,-11,6,3
1615920629216552,-1,-2,-2,-6,36,-18,-14,-6
1615920629216552,1,-2,0,2,3,21,36,5
1615920629225420,1,-1,1,-2,-37,4,1,32
1615920629225420,0,1,0,-4,4,9,-15,-8
1615920629239415,-2,-2,-5,4,5,7,23,10
1615920629239415,-1,-3,1,4,82,21,-16,-1
1615920629247397,1,1,2,-6,-97,-60,8,-16
1615920629247397,-3,-2,-3,-8,-6,-11,9,3
1615920629263352,2,0,-1,-1,8,6,-5,0
1615920629263352,-2,-1,-6,2,-38,-4,13,-4
1615920629263352,-1,0,5,1,105,29,21,-4
1615920629263352,1,1,4,4,-38,-21,25,8
1615920629276320,-1,-4,-5,-7,21,-12,-15,-11
1615920629276320,-2,1,-3,-1,-10,9,15,11
1615920629285293,-1,-2,1,1,-34,-2,-25,-13
1615920629285293,0,0,-1,-1,36,0,15,7
1615920629299362,0,0,3,3,-7,7,-27,-7
1615920629299362,2,1,1,-10,-68,-16,43,12
1615920629307365,0,-2,-4,3,20,-7,-35,-12
1615920629307365,-2,-4,0,3,42,-4,-2,-8
1615920629322314,0,2,-2,-2,-66,-7,-33,-3
1615920629322314,-1,0,6,-2,-10,8,-16,-4
1615920629323308,-3,-1,-5,1,-6,6,15,0
1615920629323308,0,1,-3,-1,0,3,-12,0
1615920629338069,-2,-2,6,1,27,2,30,-1
1615920629338069,0,-1,-3,-2,-22,5,9,-4
1615920629345055,0,1,-1,1,78,14,-10,-1
1615920629345055,0,-2,0,-1,-17,11,-6,-13
1615920629359076,-1,-1,-1,-5,-53,-10,18,5
1615920629359076,1,-1,-4,0,0,-9,25,12
1615920629367150,-2,-3,-2,4,-16,17,-35,-11
1615920629367150,-2,3,7,-6,-61,3,-25,-12
1615920629383006,-1,0,0,-1,-32,-3,26,9
1615920629383006,-1,-1,-4,1,44,-4,-13,1
1615920629383006,1,2,-2,-2,-76,-4,7,-6
1615920629383006,0,-2,7,4,36,19,-4,9
1615920629397076,0,0,-2,0,2,-6,-16,-5
1615920629397076,-2,-2,-4,-3,8,9,-8,-2
1615920629405171,-1,0,1,7,-1,12,-8,3
1615920629405171,-2,3,4,0,-44,-31,10,2
1615920629419163,-1,-1,-3,-9,11,12,-7,2
1615920629419163,-3,-3,-6,0,20,-12,7,0
1615920629427999,0,-1,-3,-7,-40,0,11,-5
1615920629427999,-2,-4,-6,1,51,6,-16,-1
1615920629441964,1,0,6,2,36,1,20,6
1615920629441964,-2,1,-2,0,-14,-2,-23,-8
1615920629442961,-1,-1,2,-1,-9,8,23,0
1615920629442961,2,-2,-6,-3,-15,-2,-5,5
1615920629456928,-2,-3,0,1,-37,12,23,-4
1615920629456928,2,-1,-5,-4,38,-11,-18,-29
1615920629465035,-2,-5,0,0,32,10,31,52
1615920629465035,1,1,-3,-3,-11,-7,-3,-7
1615920629478892,-1,1,1,1,34,5,-12,-4
1615920629478892,-1,3,7,2,-4,1,18,7
1615920629487895,-1,-2,-8,-7,-13,-16,-25,-23
1615920629487895,-2,-5,-7,-6,14,20,20,10
1615920629501827,-4,-2,-4,0,-77,-22,-13,-5
1615920629501827,-4,-2,-2,-2,-4,-4,-18,-7
1615920629509806,0,-1,-1,-3,20,-7,-4,-7
1615920629509806,-3,-3,-7,2,49,33,13,5
1615920629516812,-3,-1,2,2,44,5,-14,-14
1615920629516812,0,-1,3,-1,37,9,3,11
1615920629524792,-2,-2,-3,-2,-53,-1,-2,-6
1615920629524792,-2,0,0,-3,11,-6,1,-6
1615920629539726,-1,-1,-4,-2,5,-7,6,3
1615920629539726,0,-3,-1,1,-4,-3,14,8
1615920629547704,1,1,4,-1,6,4,-45,-8
1615920629547704,-2,-2,-8,-3,-8,-17,10,-3
1615920629561667,1,0,-3,5,13,-11,0,5
1615920629561667,-1,0,8,-3,-29,-2,23,4
1615920629578674,-4,-6,-5,-7,42,16,19,9
1615920629578674,3,0,4,5,29,-4,-15,-3
1615920629579618,-2,-4,-5,-6,-36,-27,-29,-10
1615920629579618,-1,-1,0,0,-13,3,-27,3
1615920629584606,-2,1,1,2,31,2,5,-10
1615920629584606,-2,1,0,-2,-13,3,-2,-5
1615920629599673,1,-2,7,0,47,22,10,8
1615920629599673,-1,-3,-9,-1,-1,-13,-21,-14
1615920629614633,-2,-3,0,-2,-26,-3,14,-5
1615920629614633,0,2,6,6,5,-18,1,5
1615920629621547,-2,-3,-5,-5,48,7,-7,-8
1615920629621547,-2,-2,-2,-6,-29,5,-5,-5
1615920629629639,0,-3,-4,-5,16,0,7,2
1615920629629639,-1,-1,4,2,20,7,12,7
1615920629636654,-1,2,0,1,13,15,-8,-2
1615920629636654,0,-1,2,-4,59,-4,13,-9
1615920629644607,-2,0,-1,5,-16,-4,11,4
1615920629644607,1,-4,-9,-6,-24,23,-33,-7
1615920629659590,0,3,12,2,-52,-33,31,-1
1615920629659590,-2,0,-2,2,-20,-9,-17,-22
1615920629667568,2,0,2,-1,-15,9,30,45
1615920629667568,-1,-1,-4,0,1,-12,-18,-4
1615920629681733,-4,-4,-6,-3,-53,10,13,-3
1615920629681733,3,1,3,5,12,8,-4,5
1615920629689712,-1,1,3,-2,8,-35,-5,-15
1615920629689712,-4,-2,-7,-2,40,10,11,-7
1615920629704989,0,-2,1,3,8,-18,-15,6
1615920629704989,-1,-3,-1,-3,2,-1,10,5
1615920629705884,-1,-1,-1,-3,22,18,-12,-13
1615920629705884,1,1,0,3,25,11,15,19
1615920629720844,-1,0,2,-1,-2,6,-28,-17
1615920629720844,0,-3,-10,-6,-12,-6,26,10
1615920629728007,1,3,8,1,-6,-4,-37,-9
1615920629728007,-2,-4,-5,-8,-27,-5,-7,-7
1615920629741947,1,1,-7,-3,-22,25,17,7
1615920629741947,-2,-3,6,8,-26,1,17,4
1615920629749999,-1,0,-4,0,19,-6,-1,-2
1615920629749999,2,1,6,1,-55,-14,-1,-5
1615920629764962,-1,-3,-1,-1,10,25,-8,-2
1615920629764962,1,-2,-3,0,73,-12,-18,9
1615920629765859,-4,-1,1,1,-17,-11,2,-17
1615920629765859,0,0,-1,-2,8,5,-3,7
1615920629778828,-1,1,-3,3,15,-1,1,-2
1615920629778828,0,1,0,-2,-44,0,17,9
1615920629787824,-2,-3,-6,5,42,20,-24,-6
1615920629787824,-2,0,11,-5,-52,-24,31,-2
1615920629801897,-1,-2,-5,-4,24,-5,-14,1
1615920629801897,-5,-2,-2,-3,-32,-11,-5,-8
1615920629809906,1,-1,-9,-11,-17,-6,-15,4
1615920629809906,-1,-2,-4,-1,38,-3,-18,-31
1615920629824971,0,-1,-1,1,-4,-2,6,44
1615920629824971,-2,-1,4,4,11,1,-8,-3
1615920629825860,-2,1,9,-1,0,-2,3,-8
1615920629825860,-1,0,1,1,-18,-34,-13,1
1615920629838825,1,1,0,-4,-1,0,20,-7
1615920629838825,0,2,-7,0,10,-2,-1,-7
1615920629847805,3,-2,0,1,9,12,5,30
1615920629847805,-3,-2,-3,-4,-33,-16,5,1
1615920629861764,-2,-3,-1,-3,-4,-1,-5,-10
1615920629861764,-3,-1,-2,-2,-22,-15,-20,-8
1615920629869841,1,-1,-5,-3,40,30,17,-8
1615920629869841,-1,2,10,8,22,2,-1,3
1615920629892868,1,0,-1,0,10,0,-25,-1
1615920629892868,-3,-2,1,-2,-11,-5,-11,-3
1615920629893866,-3,-2,0,0,-28,-5,5,-4
1615920629893866,1,-2,-9,-7,-4,11,0,7
1615920629898877,0,-1,-6,0,-25,-20,-2,-4
1615920629898877,2,2,12,0,41,20,26,9
1615920629907828,-1,2,-1,5,-45,-21,-18,-22
1615920629907828,0,-3,0,1,-5,11,16,9
1615920629938407,-1,0,-5,-2,-15,-13,-9,-10
1615920629938407,1,1,-2,-4,-9,-2,0,7
1615920629939405,-2,-1,-1,0,-15,-8,11,-2
1615920629939405,-3,-4,-7,-2,19,11,-14,-6
1615920629954361,-3,-1,1,-1,24,19,1,-2
1615920629954361,0,-1,-5,4,81,1,9,1
1615920629955359,2,0,1,-2,22,-2,18,6
1615920629955359,-2,0,-2,0,26,-1,-6,3
1615920629959375,-4,0,1,-1,0,-6,-32,-10
1615920629959375,-2,-3,-3,-2,-4,-6,10,-4
1615920629967327,-2,-2,-1,2,-18,-13,4,-6
1615920629967327,-2,-3,-5,0,-24,5,-5,0
1615920629982313,1,-2,-1,-4,-19,-6,9,-4
1615920629982313,1,1,0,2,-56,2,-15,-2
1615920629990265,-2,1,6,-7,-27,-9,6,9
1615920629990265,-1,-1,-6,-4,-14,-10,-10,-5
1615920630005219,-1,0,6,3,21,-4,5,-2
1615920630005219,-2,-3,-7,-1,-29,5,-1,-6
1615920630006191,0,-2,-3,5,63,22,-16,-2
1615920630006191,-1,3,3,0,-15,-16,18,3
1615920630028678,-3,-2,-2,-3,-27,4,5,6
1615920630028678,-4,-4,-8,-5,37,-10,-13,-2
1615920630028678,0,1,9,0,2,7,46,14
1615920630028678,3,1,-2,-3,14,-5,-40,-3
1615920630041660,-2,-4,-2,2,45,16,0,-6
1615920630041660,-1,-1,-5,-4,-34,-2,17,-39
1615920630049714,4,-2,-10,-4,-53,-16,-2,23
1615920630049714,-1,-1,4,-3,57,-9,15,3
1615920630064693,-2,-3,0,-5,-9,-1,-5,3
1615920630064693,-4,-1,1,1,21,11,-10,-1
1615920630065649,-2,1,-7,0,5,-9,-11,-11
1615920630065649,-3,-1,-8,1,-12,11,0,-2
1615920630079616,-1,-1,8,-1,0,-7,-14,-4
1615920630079616,0,-2,0,-5,4,7,23,17
1615920630094576,-2,-1,-5,-1,26,-24,-46,-21
1615920630094576,-2,-1,1,-2,-39,-2,-4,1
1615920630101732,0,-1,2,5,-2,-10,20,-7
1615920630101732,1,3,-1,-1,-3,-1,-28,8
1615920630109714,-1,0,2,-2,13,8,2,0
1615920630109714,0,-2,-5,-5,-42,-5,-4,-9
1615920630133680,1,0,-1,6,-46,-7,-2,1
1615920630133680,0,-3,4,-4,-18,2,2,11
1615920630133680,-1,-1,-2,1,-27,5,1,-1
1615920630133680,-3,-1,-1,-2,17,-1,1,3
1615920630148610,-1,-2,-4,-1,44,5,8,-2
1615920630148610,0,-1,3,3,-13,-6,-13,10
1615920630149604,-3,-1,-1,-1,-4,7,-4,-8
1615920630149604,2,0,2,2,32,15,7,7
1615920630170552,2,4,-3,-1,-19,-13,-9,1
1615920630170552,0,-1,5,0,16,15,17,-1
1615920630171546,0,-2,0,-3,11,-9,-4,-2
1615920630171546,-1,-2,0,1,-28,3,1,-1
1615920630185509,-2,-2,-1,1,6,9,-1,-6
1615920630185509,-1,0,0,-5,-14,-2,5,6
1615920630192493,-3,-3,-1,-1,-76,6,5,-3
1615920630192493,-3,-5,-7,-4,23,-42,6,-7
1615920630208469,1,2,8,-2,-9,-1,8,7
1615920630208469,-2,-2,-3,2,5,13,0,-5
1615920630209525,0,1,0,-1,1,-4,2,1
1615920630209525,0,0,-3,4,10,8,-2,-3
1615920630230433,-1,-3,-5,-2,8,-2,-4,-4
1615920630230433,-1,-2,-2,0,6,-7,-6,-1
1615920630231434,-4,0,1,0,17,3,-3,-4
1615920630231434,-1,2,2,1,7,2,5,-2
1615920630245409,-2,-2,-6,-7,-21,2,0,1
1615920630245409,-1,-3,-2,1,-50,-29,-6,-7
1615920630246368,-1,-4,-1,-6,-39,3,-32,2
1615920630246368,0,0,1,0,-37,19,25,0
1615920630259355,-3,-3,1,-1,51,-11,-16,0
1615920630259355,-1,-2,-4,-1,28,1,12,3
1615920630267312,-2,0,-1,-1,7,2,-2,-3
1615920630267312,-2,0,0,1,-1,4,2,-1
1615920630282275,-1,1,-1,0,-17,-1,-4,-2
1615920630282275,0,0,-2,-1,11,8,-3,0
1615920630290250,1,-2,1,2,30,7,13,2
1615920630290250,2,-1,1,-1,11,-4,-6,1
1615920630305215,-1,0,-2,-2,1,-5,23,0
1615920630305215,1,0,-5,0,-3,-17,-6,10
1615920630306208,-2,-3,-2,-3,16,8,6,-10
1615920630306208,0,0,2,-1,-9,-4,-32,-2
1615920630319173,-4,-2,-2,-2,0,-1,14,-4
1615920630319173,1,0,3,2,3,3,10,2
1615920630327855,-2,-1,-1,-2,-9,-5,-4,2
1615920630327855,-1,-1,0,0,20,6,5,-3
