timestamp,emg1,emg2,emg3,emg4,emg5,emg6,emg7,emg8
1615920577179417,-1,-2,-4,-2,-7,-5,-5,1
1615920577179417,-2,-3,-5,-5,-8,3,-1,-2
1615920577194410,0,-1,-3,-3,-19,3,10,0
1615920577194410,-2,-3,6,3,44,-6,-24,-8
1615920577202356,0,0,0,-1,-32,15,-10,-2
1615920577202356,-1,-2,-2,-2,16,-17,0,0
1615920577218317,2,-1,0,0,34,14,-5,-2
1615920577218317,-3,-2,-5,0,3,3,14,-2
1615920577219311,1,-1,-2,-2,1,-14,-7,4
1615920577219311,-4,-4,-4,-4,-20,8,-24,-6
1615920577226292,-3,0,-4,3,-7,-18,3,0
1615920577226292,-2,1,0,-7,-24,-4,-16,-5
1615920577248233,-2,-2,-3,-1,52,-4,-28,-7
1615920577248233,1,1,-2,-1,-38,-8,15,5
1615920577250229,0,0,1,-1,18,7,-6,0
1615920577250229,-1,-2,-1,1,-23,-25,-2,-3
1615920577262196,-2,-2,-3,-2,-7,14,5,7
1615920577262196,1,-2,-5,-15,4,-21,-4,-1
1615920577271171,-3,-2,8,11,12,8,-5,-10
1615920577271171,5,4,7,5,-19,-11,8,13
1615920577277156,-1,-2,-2,0,-5,4,3,-6
1615920577277156,-2,-3,-5,2,17,13,-7,-1
1615920577286132,-1,-1,-3,-5,2,-14,9,-2
1615920577286132,-2,-2,-2,-12,0,8,12,-6
1615920577300094,-1,-4,-2,7,-4,11,19,4
1615920577300094,-3,-3,-1,3,-15,7,0,-10
1615920577309070,-1,-1,1,-6,9,-20,-9,2
1615920577309070,-1,1,2,0,-3,-3,5,-4
1615920577322036,-2,-1,-4,-7,36,-11,-11,-3
1615920577322036,-2,-1,0,4,-13,7,26,-1
1615920577339154,2,2,-1,-2,-1,5,0,8
1615920577339154,0,-2,-5,1,-23,13,15,-1
1615920577341096,-2,1,6,-6,34,-8,-51,-8
1615920577341096,1,2,0,8,-66,-16,2,1
1615920577346083,-2,-3,-5,-2,18,5,0,-3
1615920577346083,-2,-2,-4,-5,16,13,1,-2
1615920577360050,1,-1,0,6,-10,7,1,-2
1615920577360050,0,1,3,-1,21,-12,-4,-7
1615920577369022,-2,-2,-3,-2,-10,-15,-2,3
1615920577369022,2,-3,-3,-4,-8,0,3,-1
1615920577381987,-1,0,1,-2,-16,-3,11,-2
1615920577381987,2,0,-7,-6,32,3,-11,3
1615920577397944,2,4,12,14,-38,0,8,-3
1615920577397944,-3,-4,-4,-7,24,-22,2,-7
1615920577398966,3,0,-4,-4,-13,6,-7,7
1615920577398966,-2,0,10,9,-36,14,-3,-2
1615920577405923,4,3,-4,-4,-9,-1,18,9
1615920577405923,1,-1,1,5,14,8,-42,0
1615920577419889,-2,-2,-1,-1,-18,1,5,-3
1615920577419889,-2,-2,-4,-6,43,7,-11,0
1615920577428911,-1,0,-3,4,0,22,-2,-5
1615920577428911,-1,-2,1,-3,-32,12,7,0
1615920577442881,-2,0,-3,-2,14,-22,0,-4
1615920577442881,-2,-1,1,4,12,-1,14,10
1615920577450860,0,-2,-1,-2,-42,-3,-37,2
1615920577450860,-2,0,-4,-7,33,-5,-9,-4
1615920577457837,1,-2,-1,10,5,21,-8,2
1615920577457837,-1,2,0,-1,-63,-3,15,-2
1615920577473795,-3,-3,-10,-15,14,-4,3,-7
1615920577473795,2,1,8,9,18,-11,7,5
1615920577479779,-1,-2,-4,-2,-14,-12,6,2
1615920577479779,-1,-1,0,5,37,20,-5,-5
1615920577488812,-1,-5,-9,-9,33,-4,12,7
1615920577488812,-2,-1,4,3,12,11,-10,-3
1615920577502774,-4,-2,-2,-7,-13,-3,-25,-6
1615920577502774,-1,-1,-2,-6,19,-34,-9,-4
1615920577511749,-2,-4,-3,5,-10,11,-4,-4
1615920577511749,0,1,-4,2,47,-1,9,1
1615920577525736,0,-1,0,-1,-19,12,31,5
1615920577525736,-1,-2,-3,-5,-7,-17,1,6
1615920577527710,-2,1,3,-2,25,-21,-6,-4
1615920577527710,-3,-3,-8,-5,-50,-32,-28,-6
1615920577539686,0,2,12,6,-13,5,19,3
1615920577539686,0,0,-3,-5,-14,8,-5,-5
1615920577548647,-3,-1,-3,2,28,10,22,-1
1615920577548647,-1,-1,-2,1,29,-3,-18,-2
1615920577562610,-1,1,1,-12,-10,1,-3,-4
1615920577562610,0,-4,2,3,25,4,-9,-2
1615920577577574,-1,0,1,7,-25,1,2,-2
1615920577577574,-3,-2,-4,-1,-1,-4,4,-3
1615920577586550,1,0,-1,10,7,6,1,0
1615920577586550,0,1,3,1,82,-5,-6,-1
1615920577587543,0,1,-1,-7,-16,1,4,0
1615920577587543,-1,-3,-4,-3,-9,15,-6,-3
1615920577599535,0,0,0,-2,13,3,-5,-1
1615920577599535,-1,2,0,2,-10,20,-21,-6
1615920577608586,0,-2,-2,-3,-7,-1,30,5
1615920577608586,-1,2,10,5,24,-3,5,-1
1615920577621980,-1,-1,-3,-3,-9,6,-2,5
1615920577621980,1,-1,-3,3,-13,-5,11,1
1615920577646939,-1,-1,-4,-5,24,1,-9,-4
1615920577646939,-1,-3,1,3,-34,-14,0,-1
1615920577647934,4,3,-4,-14,-30,-3,10,3
1615920577647934,-1,-1,0,-3,9,-15,12,2
1615920577648934,-4,-3,0,8,-4,4,-16,-10
1615920577648934,1,0,2,3,12,0,6,0
1615920577659904,-2,-1,-3,-5,-7,-25,21,1
1615920577659904,-2,-3,-4,-10,-8,12,10,-2
1615920577668855,-2,0,2,2,-13,-14,-18,-3
1615920577668855,0,-1,-9,-3,7,16,2,2
1615920577682818,-2,-2,-1,-1,19,-5,-2,-1
1615920577682818,0,1,4,0,-12,-2,9,1
1615920577691793,-2,-1,-1,-3,-8,-1,-6,-4
1615920577691793,-1,-2,-5,-3,72,8,12,4
1615920577706752,-1,1,6,2,26,4,-14,-4
1615920577706752,1,-3,-7,-3,-3,10,-3,-3
1615920577707751,0,0,1,0,32,6,-5,-4
1615920577707751,-4,-1,-4,-3,-9,4,4,4
1615920577719408,-1,-2,-2,3,-21,-13,-16,-4
1615920577719408,0,0,-1,2,13,2,14,-3
1615920577728380,0,1,1,-6,32,27,-4,3
1615920577728380,1,-1,-2,-2,-36,6,-20,-1
1615920577742347,-2,-1,-2,-1,-3,-24,24,0
1615920577742347,-3,-3,-7,1,-40,17,-19,-3
1615920577751319,-1,-1,4,-4,21,-5,3,1
1615920577751319,-2,1,0,3,-52,3,12,-4
1615920577766283,-1,-1,-4,-4,-1,7,0,3
1615920577766283,-1,3,-1,-2,5,-15,-12,1
1615920577768273,-2,-4,-4,2,11,5,3,-3
1615920577768273,0,-2,-2,-5,-7,-5,-8,-5
1615920577780322,-1,-3,0,0,6,-17,1,-3
1615920577780322,-1,0,-2,-1,-4,-8,5,1
1615920577789242,-3,-2,-6,-6,-29,-1,-37,-4
1615920577789242,1,0,6,11,29,5,16,4
1615920577811387,-2,-3,-7,-3,53,24,2,-2
1615920577811387,0,0,3,-3,-29,-12,5,2
1615920577812370,-2,-1,0,0,38,6,5,2
1615920577812370,-4,-3,-6,-9,-21,-20,5,3
1615920577826336,0,0,3,5,19,12,-3,2
1615920577826336,2,2,1,-1,-6,14,-13,-3
1615920577827333,0,-2,-2,1,21,-3,12,-1
1615920577827333,1,1,-3,-6,-12,1,5,0
1615920577840337,-1,-2,-4,0,-6,0,-31,-7
1615920577840337,-3,-3,7,-1,-3,15,15,2
1615920577855287,4,2,-5,4,-40,-17,-2,2
1615920577855287,0,-2,1,3,0,-7,-6,1
1615920577862238,-2,-1,-5,-2,-13,7,-3,2
1615920577862238,1,-1,-2,1,7,-3,-5,-1
1615920577871214,0,-1,-2,-10,-39,1,11,0
1615920577871214,-2,2,8,2,-64,-14,-17,0
1615920577886173,-1,-1,-2,-3,-36,-20,46,-2
1615920577886173,-5,-4,-7,-5,28,-4,-31,-6
1615920577888168,2,0,4,1,-22,-18,15,9
1615920577888168,-1,-3,-5,-2,-15,-3,-3,-9
1615920577900177,4,3,1,1,23,13,-23,11
1615920577900177,-6,-3,0,-2,0,-24,-1,-6
1615920577909161,2,0,1,2,-7,5,1,5
1615920577909161,-3,-1,-2,-1,-1,-5,-18,-8
1615920577923162,1,0,2,4,5,17,-2,-1
1615920577923162,-2,-5,-4,-2,7,-6,10,-2
1615920577931110,-1,0,1,2,70,-4,-11,0
1615920577931110,3,0,1,-2,10,10,-1,1
1615920577945071,-5,-3,-3,4,-12,-5,-6,-6
1615920577945071,1,1,-1,0,-6,7,16,1
1615920577961042,2,-1,2,-3,-30,11,-6,3
1615920577961042,-1,-1,1,0,11,3,-3,1
1615920577961042,-3,-3,-2,2,5,-11,-3,-10
1615920577961042,-2,-2,0,1,-10,-10,-5,-2
1615920577969006,-2,-1,-6,-3,-23,-15,-1,-4
1615920577969006,1,3,0,-5,26,5,5,2
1615920577981973,-3,-2,-3,3,-2,-3,-2,-1
1615920577981973,0,2,1,4,32,5,17,3
1615920577998927,-3,-2,-1,2,-34,-12,-13,-8
1615920577998927,-2,-3,-3,-4,12,-14,12,6
1615920578005908,-1,-1,4,-3,-2,-13,13,0
1615920578005908,-1,-3,-4,-2,15,14,-25,-3
1615920578011920,-5,-6,-5,-7,-15,-42,7,-5
1615920578011920,-3,-4,-4,-6,-1,13,17,-7
1615920578027882,2,0,0,4,-1,3,-1,1
1615920578027882,0,-1,-1,-2,-29,7,-5,-2
1615920578042844,0,0,-1,-1,-13,-8,-24,-5
1615920578042844,-1,-1,1,1,-5,5,10,-1
1615920578043840,-3,-2,-3,-5,-10,-11,-24,-3
1615920578043840,2,1,3,2,-12,9,19,6
1615920578051826,-3,-3,-5,-5,37,18,-15,-8
1615920578051826,-3,-3,-7,2,29,0,-8,-3
1615920578064795,1,-1,-2,1,12,-11,10,3
1615920578064795,-2,-2,-2,-5,-18,-17,-8,-2
1615920578074091,-4,-3,-2,1,16,11,16,2
1615920578074091,1,-1,0,-1,14,-4,-29,-2
1615920578080080,-1,1,0,-5,-14,-22,-12,-10
1615920578080080,-2,-4,-9,0,2,6,2,0
1615920578089051,0,0,15,3,0,6,11,0
1615920578089051,-1,-1,-6,-2,25,2,3,-3
1615920578102115,-1,0,-3,-6,-23,-1,-5,0
1615920578102115,-1,0,-1,-5,-9,-20,-2,-3
1615920578111104,2,1,-1,14,14,17,-28,1
1615920578111104,-1,0,5,-1,43,-5,8,-3
1615920578124959,0,0,2,-10,-27,7,9,2
1615920578124959,0,-1,-10,-1,-12,-18,-2,-1
1615920578140913,-2,0,6,1,31,-8,24,-2
1615920578140913,1,3,0,-1,-51,2,4,2
1615920578140913,-2,-5,-5,-1,45,0,-12,-5
1615920578140913,1,0,2,1,-8,3,-8,0
1615920578148896,-1,0,-4,-4,-31,-6,8,-2
1615920578148896,-1,1,-1,-1,-36,-10,-10,-3
1615920578161857,-5,-2,-4,-4,-5,7,17,-7
1615920578161857,1,0,8,0,27,7,5,2
1615920578171830,-1,-1,-3,-2,14,25,8,-7
1615920578171830,-1,-3,-3,0,-34,-24,6,9
1615920578184796,-3,-3,1,1,9,3,3,-5
1615920578184796,-1,0,-6,-4,39,3,-11,-2
1615920578193771,1,1,-5,5,-21,20,-6,-1
1615920578193771,-1,2,4,-6,-23,-5,-20,-3
1615920578199756,-5,-1,0,4,-15,-2,24,0
1615920578199756,-2,-2,-2,2,-25,10,24,5
1615920578208761,-1,-1,0,-10,-14,-13,-2,-5
1615920578208761,0,-2,-3,-4,0,21,-4,0
1615920578222720,2,0,0,6,6,-15,-13,4
1615920578222720,2,0,4,3,55,2,-4,1
1615920578238651,0,0,-6,-6,-50,2,0,2
1615920578238651,-3,-2,-6,2,-7,-14,-31,-9
1615920578244637,1,2,11,2,-1,2,-9,-3
1615920578244637,-1,1,1,2,-35,-3,1,-1
1615920578253611,-2,-3,-3,-2,62,9,2,1
1615920578253611,-2,-2,-5,-1,-10,5,13,2
1615920578268572,2,4,4,-7,-15,11,-13,6
1615920578268572,-2,-1,-3,1,-29,-2,-3,-13
1615920578270566,2,-1,2,2,24,0,3,8
1615920578270566,2,0,0,1,11,-4,11,-3
1615920578282534,-2,-3,-5,-3,6,-2,-13,-3
1615920578282534,0,-1,2,6,69,3,24,7
1615920578291510,-1,2,3,-3,-50,-5,-2,-2
1615920578291510,2,-1,3,-2,51,6,12,5
1615920578304475,0,-1,-8,2,-7,22,9,3
1615920578304475,5,3,3,2,-9,-8,-21,3
1615920578322427,-4,-1,-2,0,-14,-7,14,-2
1615920578322427,0,0,3,-1,-1,-4,2,1
1615920578322427,-1,0,2,0,36,-9,-2,-3
1615920578322427,-3,-5,-8,-6,-21,6,-23,0
1615920578328412,-2,-1,-1,-2,-20,-29,-5,-3
1615920578328412,2,1,2,5,2,22,4,7
1615920578342376,-2,-1,-6,-4,1,-17,-2,1
1615920578342376,-3,0,2,1,28,-8,-15,-7
1615920578352348,3,4,8,-1,-45,-12,4,3
1615920578352348,-1,-1,-2,-2,-5,1,2,-4
1615920578365339,1,-1,-2,-2,-20,4,9,2
1615920578365339,-2,-1,-3,1,8,-7,-9,-3
1615920578374290,-3,-4,-3,-6,-30,-6,-2,-6
1615920578374290,0,1,2,7,8,1,20,3
1615920578380299,-2,-3,-4,-5,-29,0,-1,-5
1615920578380299,0,1,2,6,18,5,2,3
1615920578389275,0,-1,-5,-3,25,12,-13,6
1615920578389275,-3,-1,0,-1,10,1,15,-5
1615920578402253,1,-1,-2,4,-8,-16,-15,5
1615920578402253,-4,-3,-6,-5,-56,-21,-21,-10
1615920578411191,3,0,-1,-5,-25,3,-3,5
1615920578411191,-3,-3,-2,1,32,-2,2,-2
1615920578425280,0,-2,0,-1,-5,-6,-18,-2
1615920578425280,-1,1,-2,-1,-4,8,13,-3
1615920578434324,-1,-1,0,1,3,-7,0,3
1615920578434324,-1,0,0,-3,-23,-12,-23,-3
1615920578449219,0,-1,0,-2,12,8,6,-2
1615920578449219,1,-2,-1,-5,-29,2,-2,-3
1615920578450215,-1,-1,2,1,31,17,11,-1
1615920578450215,-4,-2,-3,8,-13,-18,-20,-12
1615920578462183,0,-1,-2,-5,8,10,-15,-3
1615920578462183,1,1,-3,-4,-37,-10,24,10
1615920578479192,-2,-2,-5,0,3,-11,5,-3
1615920578479192,3,0,-2,-3,4,7,3,5
1615920578485179,-1,-1,1,-6,31,20,8,2
1615920578485179,0,-2,-2,-2,19,0,-14,-6
1615920578494151,1,1,0,1,-13,-3,-9,0
1615920578494151,-3,-2,-4,-5,-23,6,1,-2
1615920578509115,-1,-1,-2,2,0,-4,24,4
1615920578509115,-3,-3,-3,-6,-13,-10,4,-2
1615920578515096,1,0,0,0,19,3,-10,-9
1615920578515096,0,-2,-3,6,33,0,-7,5
1615920578522186,-1,1,6,-5,-30,10,13,-2
1615920578522186,-1,-1,1,2,5,-23,-4,-1
1615920578531052,-1,-1,-2,2,12,-1,-32,-5
1615920578531052,-3,-3,-3,-9,-52,-14,5,2
1615920578545050,1,1,0,6,24,-27,-8,-2
1615920578545050,-1,-5,-2,-4,0,21,-11,3
1615920578554216,0,2,5,7,2,-18,6,1
1615920578554216,1,0,-3,-11,-17,2,8,4
1615920578569240,3,2,5,4,-24,11,6,4
1615920578569240,-2,-3,-1,0,25,3,2,-5
1615920578570174,-1,-4,-4,-6,3,5,-2,-3
1615920578570174,-3,-2,0,4,-4,-9,4,-1
1615920578583203,1,-1,-3,1,-1,3,1,-3
1615920578583203,0,1,-1,-3,42,18,6,-1
1615920578591082,0,-2,0,1,-3,-21,4,-1
1615920578591082,-1,1,-1,-2,-17,-11,0,-4
1615920578605077,-2,-2,-5,1,15,8,-5,-5
1615920578605077,-1,-2,-3,-1,1,-17,7,2
1615920578621150,-2,-4,-6,-4,1,19,5,0
1615920578621150,3,-1,2,0,25,5,-5,3
1615920578629129,-2,-3,-4,-1,-38,-19,21,0
1615920578629129,-2,-1,0,-1,-37,-5,-16,-5
1615920578635112,0,-1,-2,-2,-11,-11,4,-2
1615920578635112,1,0,2,-3,0,10,-14,-2
1615920578642192,-2,-3,-4,-2,49,22,-6,-1
1615920578642192,-2,-1,-4,-6,-11,-3,22,-2
1615920578651204,0,-2,2,3,15,-6,-14,-3
1615920578651204,-2,-1,1,2,14,2,19,-4
1615920578665170,1,1,3,1,8,-6,-7,3
1615920578665170,-3,-1,0,-5,2,4,1,-4
1615920578674142,-1,0,-4,3,13,29,6,3
1615920578674142,-1,-1,-1,2,37,-13,-10,-3
1615920578689155,-2,0,-2,0,-20,-14,-24,-4
1615920578689155,-3,-3,-1,-3,-18,-9,-4,-2
1615920578690163,1,-1,2,-4,-27,13,-4,0
1615920578690163,-2,0,1,-1,21,11,11,4
1615920578702146,-2,-5,-5,-7,-17,-4,-7,-1
1615920578702146,1,2,4,10,35,8,1,0
1615920578711131,-5,-4,-6,-8,-75,-35,2,-4
1615920578711131,0,-2,-9,-2,2,20,-15,-5
1615920578725064,0,1,10,3,-9,-5,0,-1
1615920578725064,0,0,-1,-5,-13,7,16,4
1615920578734040,1,1,8,6,35,-7,2,-1
1615920578734040,4,-1,-3,-1,-16,4,-11,5
1615920578749000,-3,-3,-4,0,-4,-1,11,-1
1615920578749000,-2,0,-1,-2,-10,13,-14,-3
1615920578749997,0,0,-3,0,10,-18,-11,0
1615920578749997,0,-1,2,-5,-38,-2,11,4
1615920578761965,3,0,0,3,13,-14,-3,5
1615920578761965,-1,-2,4,-1,21,10,-1,-2
1615920578770941,0,0,0,-1,-2,-10,6,2
1615920578770941,-4,-1,1,-2,-13,-3,-7,-7
1615920578784904,-3,-3,-12,5,2,13,10,-5
1615920578784904,3,1,9,2,-13,7,-2,5
1615920578793879,-2,0,-3,-9,0,-13,-23,-1
1615920578793879,-3,-1,2,-2,-13,2,-8,-4
1615920578808839,1,2,3,-3,2,-10,-23,2
1615920578808839,-5,0,-3,-3,-37,-23,-2,-11
1615920578809837,1,-2,-6,1,52,33,15,14
1615920578809837,-2,-2,-3,-8,-12,-16,9,-2
1615920578821805,-1,-2,-2,-1,32,0,-2,-1
1615920578821805,0,1,0,5,2,-6,-13,-4
1615920578831778,1,-3,-3,-2,81,30,11,-2
1615920578831778,0,2,-2,0,14,-12,-1,0
1615920578844744,-1,0,2,-3,-50,-10,12,3
1615920578844744,0,-2,-6,0,3,-6,-2,-1
1615920578861700,-1,-1,2,0,0,-10,-18,-5
1615920578861700,-2,-2,-5,-3,6,5,8,-1
1615920578868681,-1,0,-1,-2,-4,-2,-13,-4
1615920578868681,0,-1,-2,6,-2,12,8,12
1615920578870678,-2,1,3,4,-23,-9,1,-14
1615920578870678,-1,-2,0,-2,-19,0,5,0
1615920578882644,-3,-2,0,-5,-3,2,-9,-2
1615920578882644,-1,-5,-9,-7,22,6,-2,3
1615920578891620,-3,1,5,2,-5,-10,-7,-5
1615920578891620,0,-1,-1,3,-12,-7,-10,-6
1615920578904585,-4,-4,-10,-7,5,-15,21,4
1615920578904585,1,2,-2,3,-2,8,8,-6
1615920578913560,3,0,1,-7,-12,-19,2,6
1615920578913560,-1,-1,0,-1,-31,1,-9,-3
1615920578928521,2,1,3,1,-17,-2,-7,-2
1615920578928521,-2,-5,-3,-5,16,0,-14,2
1615920578930516,-1,-1,-2,1,-10,13,5,-1
1615920578930516,0,0,-5,-3,-6,2,17,4
1615920578942483,0,1,5,8,19,1,-17,-4
1615920578942483,0,-2,-1,-3,-60,-1,-10,-2
1615920578951459,-1,0,2,4,19,-2,21,1
1615920578951459,-3,-2,-1,1,-8,-16,-36,-5
1615920578965424,1,0,-2,-6,-33,-1,-2,-3
1615920578965424,0,-1,2,-1,61,-7,-1,0
1615920578973402,-1,-4,-9,-4,11,18,11,-1
1615920578973402,-3,-3,7,7,12,7,7,-2
1615920578988362,-1,-2,0,-4,-30,-3,-13,-11
1615920578988362,-1,1,3,8,20,0,20,10
1615920578990358,-1,-1,-2,-9,-47,-2,-12,-2
1615920578990358,1,-1,-1,7,34,6,-9,2
1615920579002325,-1,-1,-3,0,13,19,-8,3
1615920579002325,-2,0,1,-3,3,-24,9,-4
1615920579011299,-3,-4,0,-3,29,29,15,-3
1615920579011299,0,0,-3,4,-8,3,2,4
1615920579025263,-1,-2,0,-3,-8,-11,12,0
1615920579025263,-1,-2,-1,-3,-12,-1,-8,-6
1615920579041158,-2,0,-4,-4,-12,-22,-1,9
1615920579041158,-2,-1,0,0,50,11,5,-10
1615920579049118,0,2,-3,1,-21,13,12,0
1615920579049118,-1,-1,9,-2,24,1,3,5
1615920579050110,-2,1,1,4,-31,7,-11,-11
1615920579050110,-1,-2,-3,-9,-5,-5,3,4
1615920579062078,-1,0,-3,2,-2,10,-9,-2
1615920579062078,-3,-3,-5,-3,17,-2,-5,-2
1615920579071053,-1,1,0,0,-69,7,-12,0
1615920579071053,1,2,2,-2,-11,-5,12,3
1615920579085113,-3,-5,-5,-13,30,1,-21,-6
1615920579085113,2,-1,1,7,11,3,24,-1
1615920579093991,3,-1,-5,1,-11,-10,0,4
1615920579093991,1,3,2,4,-5,-13,14,1
1615920579107062,-3,0,-3,-8,-12,8,-1,-3
1615920579107062,-4,-2,-6,-7,-56,-11,-21,-4
1615920579116934,-3,-2,6,6,18,-5,4,0
1615920579116934,-1,-2,-1,0,-16,-9,1,-2
1615920579122914,-2,-1,0,2,9,4,13,2
1615920579122914,-1,-1,-1,-6,-25,-18,-31,-3
1615920579131889,-1,-2,-3,0,44,21,-3,-6
1615920579131889,-3,-3,-3,-4,11,-8,-19,-3
1615920579144854,1,2,7,4,-43,-14,17,2
1615920579144854,1,1,0,6,40,-1,-4,1
1615920579153831,-1,-2,-4,-10,-26,-9,-10,-7
1615920579153831,3,1,-1,1,-9,18,13,6
1615920579169040,-4,-2,-2,7,42,10,-7,-2
1615920579169040,-2,1,-6,-4,-40,1,11,-6
1615920579170039,0,0,8,5,92,-19,-16,-1
1615920579170039,-5,-5,-4,-4,-14,23,3,-5
1615920579182935,0,-1,3,3,19,-12,-30,0
1615920579182935,0,1,0,-9,-66,-5,-2,-4
1615920579191001,-1,-3,-4,1,8,10,-13,1
1615920579191001,-2,1,0,-1,10,-5,-2,-3
1615920579204962,-5,-5,-5,-2,28,1,4,-3
1615920579204962,1,1,2,1,-9,18,38,-3
1615920579214056,-1,0,-3,-7,-3,-41,-12,-3
1615920579214056,0,-3,1,-3,36,15,15,1
1615920579227803,3,1,1,1,-37,-10,-12,12
1615920579227803,-3,-2,-7,1,59,-5,-28,-14
1615920579234870,1,0,11,8,-41,4,27,8
1615920579234870,1,0,-2,2,-5,-11,-14,-5
1615920579242793,0,0,1,-3,45,9,19,5
1615920579242793,-3,-3,-2,-3,-23,24,-31,-1
1615920579251154,-1,-1,-6,-2,-37,-16,7,-1
1615920579251154,-2,-1,-1,-1,9,3,-7,2
1615920579265220,-1,-1,-1,3,12,-1,6,-6
1615920579265220,0,-2,0,-9,-45,-10,-8,3
1615920579274192,-4,-3,-6,6,14,17,4,-9
1615920579274192,-1,-3,-3,-2,20,-9,-19,-1
1615920579288159,0,0,0,0,0,-24,1,-2
1615920579288159,2,-1,2,5,78,9,43,2
1615920579295137,-1,-2,-4,-11,-26,15,11,0
1615920579295137,0,-2,0,-2,-26,-21,-32,-1
1615920579302118,-3,-3,-5,-2,58,10,3,-5
1615920579302118,-2,-2,1,-2,-58,-13,-19,-9
1615920579311183,-1,0,-2,-2,33,7,-11,1
1615920579311183,2,2,8,8,6,7,23,4
1615920579325189,2,-2,-1,-7,-33,5,4,2
1615920579325189,1,2,1,8,-4,-14,-17,2
1615920579334165,-1,-1,-9,-9,-16,1,0,-4
1615920579334165,-1,-2,-3,4,62,1,-6,-5
1615920579348128,0,-1,1,3,-3,20,4,4
1615920579348128,0,-4,-3,-4,2,30,13,9
1615920579355112,4,1,6,2,1,-25,-1,16
1615920579355112,-1,0,0,-4,-1,14,39,-9
1615920579371173,-2,-2,0,-3,-46,-11,-54,-6
1615920579371173,-2,-2,-3,2,50,-2,10,-3
1615920579373061,-4,-2,-5,3,-17,-10,13,1
1615920579373061,5,3,11,5,-15,7,8,13
1615920579385032,0,0,-4,-2,-10,-3,16,-1
1615920579385032,-2,-3,-2,-2,-49,-12,-18,-2
1615920579394005,1,-2,-2,-5,20,6,-4,-1
1615920579394005,-3,-3,-8,-8,3,10,-7,-2
1615920579415950,-3,-2,-2,-5,0,-11,0,-6
1615920579415950,0,-3,6,5,-10,-14,-3,4
1615920579417941,-1,-2,-4,2,0,14,21,-4
1615920579417941,-2,-1,-3,-8,-29,-12,-46,-7
1615920579430998,0,-1,1,5,-9,-8,2,0
1615920579430998,-2,-2,-4,0,37,13,13,-2
1615920579432960,1,-2,0,-3,-63,2,-5,-6
1615920579432960,-2,-3,-5,-5,-40,-11,6,3
1615920579444956,-2,1,1,-1,-6,-19,-1,-1
1615920579444956,0,1,1,-4,8,2,-6,-2
1615920579453904,-1,-2,-5,0,-6,9,-15,-2
1615920579453904,0,4,8,2,-1,-5,1,1
1615920579467923,-1,-2,-5,5,-1,3,-1,0
1615920579467923,-2,1,4,-5,31,12,22,1
1615920579474903,-1,-1,-4,3,-12,10,21,-3
1615920579474903,-2,0,1,2,-7,-19,-7,10
1615920579491908,-2,-2,-1,-1,25,5,11,-2
1615920579491908,2,-3,-7,-4,-8,4,0,1
1615920579493880,-2,-2,-3,-2,50,-12,-10,9
1615920579493880,-3,-4,0,-1,-13,-8,11,-15
1615920579504850,-1,0,3,2,11,7,10,-4
1615920579504850,0,0,-1,0,-22,-13,-15,-1
1615920579521809,4,1,0,-1,5,-25,-10,6
1615920579521809,-2,0,8,3,9,15,-2,2
1615920579528455,-2,-2,-4,-7,10,-7,14,0
1615920579528455,1,0,-1,0,37,-3,-1,-3
1615920579534443,-4,-2,3,4,3,-6,-21,-5
1615920579534443,-1,-4,-8,-4,-33,6,4,-2
1615920579551393,1,0,2,-2,2,19,-16,1
1615920579551393,2,-1,-1,-1,-2,2,32,3
1615920579553393,-1,-1,4,-3,-7,4,8,-3
1615920579553393,-2,-4,-8,-2,0,-1,-22,-8
1615920579565356,2,1,-1,5,-2,11,10,3
1615920579565356,-1,0,-4,-10,-19,2,-4,6
1615920579574420,0,2,6,8,4,-4,-11,-2
1615920579574420,1,-1,-5,-3,-38,6,4,4
1615920579588461,1,1,-1,-4,-5,19,14,2
1615920579588461,-5,-2,-4,1,24,-24,-2,-7
1615920579594447,0,0,2,-4,-32,-37,-2,-2
1615920579594447,-3,-2,-8,-1,19,-30,-3,-1
1615920579611401,-2,-4,0,4,6,11,-4,-3
1615920579611401,0,0,0,-3,34,0,-1,-1
1615920579612399,-3,-3,-4,-7,1,15,-14,0
1615920579612399,-1,0,-4,1,-22,-7,25,-3
1615920579624367,0,0,-4,1,3,-12,-8,-2
1615920579624367,-3,0,4,-3,-3,-6,-18,-6
1615920579642320,0,-1,-1,8,45,5,24,4
1615920579642320,2,0,2,-5,-4,14,-26,12
1615920579647306,-3,-1,-2,-5,-16,-16,7,-18
1615920579647306,2,1,1,8,-38,9,-1,5
1615920579656281,0,-1,-6,-12,-11,-7,-20,-1
1615920579656281,1,2,14,11,10,-8,-6,-1
1615920579671340,-3,-6,-8,-7,-8,-16,13,1
1615920579671340,0,0,2,2,-9,20,-14,-3
1615920579673335,0,-1,-1,-4,24,-1,20,0
1615920579673335,0,-1,-4,-2,-27,-20,15,-1
1615920579685216,0,1,1,-7,-15,3,-37,0
1615920579685216,-4,-4,-4,0,10,8,19,-2
1615920579694181,-1,0,1,3,-11,20,10,-3
1615920579694181,-1,-1,-3,-5,2,3,-42,-5
1615920579707149,3,-1,0,8,-1,2,6,8
1615920579707149,-2,-2,-2,-7,-84,-16,-7,2
1615920579716122,-2,0,1,5,-17,9,-2,-10
1615920579716122,-2,0,-3,4,13,3,-6,5
1615920579731082,-1,-1,-2,-6,-4,-19,-11,-8
1615920579731082,-1,-1,-2,5,-12,-6,-6,2
1615920579733102,0,0,-1,-2,15,4,7,1
1615920579733102,-3,-5,-7,-7,23,-12,7,-14
1615920579745069,0,1,8,5,-1,3,4,5
1615920579745069,-2,-4,-7,-6,-9,-8,1,0
1615920579755125,-1,0,3,-2,8,15,-9,1
1615920579755125,0,1,1,-2,22,5,-10,-2
1615920579767011,-1,-3,0,2,-1,9,25,2
1615920579767011,4,4,-1,7,11,-7,-6,0
1615920579776988,-4,-4,-4,-4,-10,0,-24,-6
1615920579776988,-1,1,0,-2,-16,6,24,4
1615920579791102,0,2,2,-8,-18,-10,-20,2
1615920579791102,0,0,1,4,12,12,-10,11
1615920579793122,-4,-3,-5,4,15,-3,-5,-18
1615920579793122,0,-2,-4,-7,-8,18,25,1
1615920579805088,2,2,2,-2,-43,-21,0,5
1615920579805088,-3,-2,-6,-3,32,-6,-38,-13
1615920579814041,2,0,1,1,35,12,2,14
1615920579814041,-4,-4,-1,-2,-3,4,15,-3
1615920579827764,-2,0,-1,4,30,15,-5,-2
1615920579827764,1,1,7,6,8,1,9,-4
1615920579836740,0,-2,-8,-10,-72,-21,-19,-2
1615920579836740,0,-1,-2,0,26,-6,-7,-2
1615920579851701,-2,-3,-3,2,13,17,21,1
1615920579851701,-2,-1,-2,-1,27,6,16,1
1615920579874643,1,1,4,-5,-15,-6,-25,1
1615920579874643,2,4,-6,3,-68,-1,3,2
1615920579875637,-2,-1,-1,-3,14,-5,-1,1
1615920579875637,-2,-5,-5,-6,-17,-4,30,0
1615920579876635,-3,-1,3,4,23,-2,1,-6
1615920579876635,3,2,4,-10,8,-13,-23,1
1615920579887704,0,-1,-3,5,12,6,5,-2
1615920579887704,1,-1,1,5,-22,-8,2,0
1615920579896608,-1,-4,-8,-8,46,13,2,0
1615920579896608,-3,0,2,6,18,-8,-14,-3
1615920579911542,-2,1,-2,-8,-35,-17,4,-12
1615920579911542,2,1,1,-5,4,-4,17,8
1615920579912539,-2,0,-1,1,26,6,-10,-1
1615920579912539,-2,-1,1,2,-13,-5,3,1
1615920579924605,-2,-1,0,-3,-10,-1,-14,-4
1615920579924605,1,1,-1,-1,-5,0,10,3
1615920579933503,3,2,-4,0,-34,1,19,2
1615920579933503,-3,-2,2,12,35,19,15,1
1615920579947484,-1,1,7,-5,49,-8,-21,1
1615920579947484,-2,-3,-2,-6,-12,4,16,-4
1615920579956443,-3,-2,-5,-2,-56,3,-11,2
1615920579956443,1,-1,-2,-1,-2,-4,4,2
1615920579972449,3,0,-3,2,-2,3,9,6
1615920579972449,-1,-3,-2,1,37,-10,-26,-4
1615920579973376,-1,1,-3,-4,12,10,23,-2
1615920579973376,-1,0,-1,-3,0,-11,-21,-13
1615920579985369,0,-2,-5,-6,10,14,9,15
1615920579985369,-2,0,3,0,-13,-17,-5,-4
1615920579994325,-1,-1,3,13,3,11,-29,-2
1615920579994325,1,-2,-1,-6,1,3,33,6
1615920580007290,-4,-3,-6,-4,-32,1,-24,-6
1615920580007290,2,1,4,-3,3,18,1,1
1615920580022252,-4,-4,1,-2,26,3,25,-2
1615920580022252,-3,0,-1,-4,-20,-10,-10,-5
1615920580030875,1,0,-4,1,15,19,-12,0
1615920580030875,-2,0,0,-4,-25,4,-2,-1
1615920580032869,-1,0,0,4,6,-8,5,-1
1615920580032869,0,-2,-3,-3,-7,9,0,-2
1615920580044836,-1,-1,-2,1,11,-5,18,-3
1615920580044836,-3,-5,-5,-1,-25,7,-38,-6
1615920580053811,0,1,4,0,11,-35,-5,-3
1615920580053811,-2,-1,-4,-8,-3,10,-12,-9
1615920580067814,0,-3,-8,1,-19,-8,19,9
1615920580067814,0,3,13,16,67,41,6,1
1615920580076748,-2,-3,-5,-7,-24,-16,-1,-2
1615920580076748,1,1,5,-2,-13,3,2,6
1615920580091312,1,0,1,-2,13,10,-3,-1
1615920580091312,-4,-2,-1,-4,15,-7,2,-7
1615920580093200,1,-2,-3,0,-3,3,-14,2
1615920580093200,-1,-1,-1,5,-36,-9,23,1
1615920580105205,-3,0,5,-4,-23,-10,-40,-9
1615920580105205,-2,-3,-7,-2,-17,-24,-16,-5
1615920580121164,-1,0,0,3,-7,2,44,3
1615920580121164,0,-2,-5,-3,14,11,-3,0
1615920580127113,-3,-5,0,3,5,7,20,0
1615920580127113,-1,-2,-5,-5,-27,-19,-21,-3
1615920580144138,-1,0,3,-8,-7,2,-7,0
1615920580144138,1,-2,5,6,21,2,-10,1
1615920580150140,-1,0,-3,4,-8,-9,23,0
1615920580150140,0,-2,-6,-1,44,5,9,-2
1615920580157107,-1,1,6,-6,-80,7,2,1
1615920580157107,1,0,-2,4,11,-7,-7,-4
1615920580165084,-1,-2,-3,-3,13,2,-23,-4
1615920580165084,1,2,5,1,-3,-11,3,3
1615920580174057,-3,-2,-7,-4,-39,-6,-19,-9
1615920580174057,0,-2,-2,0,21,-4,6,5
1615920580187159,2,-1,2,1,-26,-5,21,6
1615920580187159,1,1,-1,-6,3,4,-10,10
1615920580197026,-2,0,-1,1,0,-10,2,-17
1615920580197026,-2,-1,-1,0,3,3,-12,-6
1615920580210989,1,-2,-3,-4,4,-15,16,3
1615920580210989,-2,-4,-5,-7,-19,3,-7,-2
1615920580217976,0,0,6,3,58,2,-5,4
1615920580217976,-5,-3,-11,0,-13,-1,9,3
1615920580225061,2,6,8,8,5,-4,-6,-2
1615920580225061,-3,0,-1,-1,12,-17,-3,-6
1615920580247891,-1,-1,-4,-1,21,8,-3,4
1615920580247891,-4,-2,-4,-8,-4,6,-7,-6
1615920580248889,-3,-2,0,-5,-36,4,-16,-4
1615920580248889,5,3,-2,8,9,8,22,6
1615920580256872,0,-4,-4,1,-11,-7,-3,-2
1615920580256872,3,-1,0,-1,-43,-20,11,4
1615920580270830,0,-1,-2,-4,8,-18,-25,-5
1615920580270830,-3,-1,0,7,-19,-9,7,-6
1615920580285790,-2,-2,-1,-16,51,10,2,2
1615920580285790,-3,0,1,2,36,12,2,0
1615920580286787,-2,-2,-2,-3,4,3,-10,-8
1615920580286787,-2,-3,-4,-4,-11,2,-17,-6
1615920580293768,2,0,0,5,4,-5,12,11
1615920580293768,-3,-3,-2,-2,-11,1,-11,-7
1615920580307735,-2,0,-2,2,-2,0,-4,-1
1615920580307735,-3,-3,-2,-6,-3,5,1,0
1615920580323715,1,2,0,-1,-31,-8,-5,2
1615920580323715,-1,0,-2,4,63,22,-20,0
1615920580330445,-2,-3,1,-1,-33,-15,-1,-4
1615920580330445,-1,-2,-1,-3,-10,-37,-3,-1
1615920580337324,1,1,0,-5,26,13,0,2
1615920580337324,1,1,2,-1,-27,-9,6,0
1615920580354275,-1,-1,-4,6,23,-12,0,-2
1615920580354275,1,0,2,-4,-22,25,-17,1
1615920580360368,-1,1,-1,1,-6,-12,-22,-14
1615920580360368,1,-2,-3,-6,-7,-3,33,11
1615920580367240,-1,2,2,-5,8,10,-15,0
1615920580367240,-3,-2,-4,-3,2,8,27,3
1615920580377214,-2,-4,-6,2,-6,8,1,-2
1615920580377214,-2,-1,4,5,0,-22,-8,-5
1615920580390203,0,-3,-8,0,-5,2,-13,1
1615920580390203,-2,-2,0,2,-3,15,4,-3
1615920580397185,0,0,-4,-1,27,-2,14,4
1615920580397185,-3,-2,-3,0,39,11,-2,10
1615920580429473,-5,-1,1,-6,18,7,3,-18
1615920580429473,-1,-1,0,4,-2,-8,3,-4
1615920580431468,-1,-2,1,4,-43,-8,-35,-1
1615920580431468,-1,-2,-5,-8,4,-1,-13,-4
1615920580432465,-2,-3,-2,1,22,11,15,5
1615920580432465,0,0,-4,-6,-1,-1,7,-2
1615920580436455,-3,-1,1,-1,-13,10,19,-2
1615920580436455,0,0,0,2,-16,-15,-10,-4
1615920580458396,-1,-2,-2,0,-39,-12,-13,-1
1615920580458396,-2,-1,-7,-7,4,-23,-12,-3
1615920580460391,1,0,10,8,-53,-16,19,3
1615920580460391,-4,0,1,-4,7,-6,-6,-13
1615920580473455,-1,-1,-3,-6,9,9,11,2
1615920580473455,1,-1,0,4,23,-18,8,4
1615920580475351,0,1,-1,0,39,6,-35,-4
1615920580475351,0,-2,-4,-7,-31,-4,8,0
1615920580487418,-3,-5,-1,0,13,14,10,-1
1615920580487418,-2,-1,4,7,-30,-2,5,-2
1615920580496294,-2,-3,-7,-9,8,8,4,-2
1615920580496294,2,3,6,6,-2,2,5,1
1615920580510356,1,2,0,-8,-18,-12,-9,3
1615920580510356,3,2,2,-2,-1,8,-6,1
1615920580525217,-3,-3,-8,1,-47,-31,15,-8
1615920580525217,-2,-1,-3,-1,8,1,-19,7
1615920580534101,2,2,2,-6,-2,-3,-4,0
1615920580534101,-2,-2,-1,-4,-18,9,55,-1
1615920580536096,0,0,1,3,-5,3,6,-1
1615920580536096,-1,-1,-4,-4,-3,-14,-10,-7
1615920580547091,-1,-1,9,4,-4,5,-2,2
1615920580547091,0,0,-2,5,13,17,2,-1
1615920580556089,2,-1,-6,-4,12,5,1,6
1615920580556089,2,0,-1,-2,-21,5,15,5
1615920580571068,-2,-1,-2,1,30,5,-14,-3
1615920580571068,-3,-3,-4,-4,-6,1,-38,-4
1615920580577051,0,1,4,9,24,24,27,6
1615920580577051,-2,-4,-4,-3,62,4,4,-6
1615920580594030,-2,-1,-2,2,-41,-19,-2,-2
1615920580594030,-1,-1,-1,-8,13,-1,0,-8
1615920580601034,-2,-2,0,-2,-8,10,-10,10
1615920580601034,-1,-2,-5,-3,56,10,17,0
1615920580606995,-1,2,5,5,13,12,2,-2
1615920580606995,2,1,2,4,0,-6,11,6
1615920580615995,-3,-2,-1,-5,-23,10,-17,-7
1615920580615995,2,-1,-2,2,15,-7,29,5
1615920580631019,-2,-3,-6,7,59,14,2,-1
1615920580631019,-2,-1,0,-5,1,9,-11,1
1615920580637944,0,0,0,-12,-34,-32,-9,0
1615920580637944,-2,-1,-1,6,-16,6,-13,-8
1615920580669830,0,0,-1,4,18,-5,13,0
1615920580669830,-2,-2,-1,-1,37,-10,-12,1
1615920580670830,-5,-5,-7,-4,20,18,-7,-11
1615920580670830,2,2,4,-2,-30,-9,-6,5
1615920580671826,-1,-4,-2,-5,-35,-6,-11,6
1615920580671826,4,0,-1,3,1,5,-17,-1
1615920580676809,-1,-4,-3,-2,-10,-7,14,2
1615920580676809,-1,-2,-4,-7,-22,-14,-17,-3
1615920580690801,1,0,-1,2,22,0,8,-2
1615920580690801,1,0,-4,-7,-47,-6,-13,8
1615920580698752,1,1,1,9,-19,0,5,2
1615920580698752,-4,-2,-5,-1,15,24,2,-7
1615920580713709,-1,0,5,-3,-10,-4,11,0
1615920580713709,-3,-1,0,-7,-39,-2,-28,-6
1615920580715704,0,0,-6,9,41,7,5,2
1615920580715704,0,2,7,-7,-30,-8,-4,0
1615920580736673,-1,0,-4,1,-2,0,-6,0
1615920580736673,-2,-2,-2,1,16,-3,6,-4
1615920580738642,0,-1,5,-3,45,-11,13,2
1615920580738642,-4,-3,-3,1,-28,-11,-21,-8
1615920580751607,-1,-2,-5,-4,-8,-8,13,1
1615920580751607,0,-2,-2,-2,-26,2,21,0
1615920580758592,-3,0,5,2,13,-2,-25,-6
1615920580758592,1,2,1,-5,42,-12,14,4
1615920580774701,-1,-3,-3,4,5,0,-43,-4
1615920580774701,-1,-3,-2,-2,-2,-23,5,1
1615920580775673,2,0,-1,-1,-10,14,26,2
1615920580775673,0,4,7,8,21,8,-42,-4
1615920580787645,-4,-4,-7,-9,-34,-13,9,-5
1615920580787645,1,1,-1,-1,8,-5,7,5
1615920580796617,0,-1,-3,-7,2,3,9,-3
1615920580796617,-3,-4,-4,-2,13,-9,8,-5
1615920580810585,2,0,1,2,1,9,17,7
1615920580810585,-4,-2,0,-1,-32,-16,-12,-6
1615920580817604,-3,-4,-5,-1,35,4,5,-3
1615920580817604,-2,-3,-2,0,-81,-12,-7,1
1615920580841500,-3,-1,-5,-8,40,18,-7,-3
1615920580841500,1,1,-1,-1,9,9,4,-2
1615920580842498,-1,-1,-2,4,-10,-9,-13,-3
1615920580842498,2,-1,0,0,13,26,18,7
1615920580847490,-2,-2,2,-1,-15,-17,-17,-5
1615920580847490,2,0,0,4,14,8,24,10
1615920580856463,-3,-4,-4,-6,-9,2,-18,-3
1615920580856463,-1,-4,-6,-3,-33,1,0,0
1615920580879423,-1,-1,5,-3,4,-28,3,2
1615920580879423,-6,-5,-4,-4,37,21,-4,-20
1615920580881391,-3,-2,2,7,-14,-4,14,-2
1615920580881391,-3,-1,-5,0,-22,-8,8,-1
1615920580893382,-2,-1,0,-6,-23,16,10,-5
1615920580893382,-1,0,-1,4,0,14,-11,4
1615920580895355,0,2,1,-4,7,6,0,5
1615920580895355,-3,-3,-2,-3,-15,-10,-15,-10
1615920580907322,0,-1,-1,7,6,-18,4,1
1615920580907322,0,0,-1,-4,-23,-4,2,-3
1615920580922389,-1,2,4,-2,-15,-11,-10,-1
1615920580922389,1,0,-1,-2,20,10,16,4
1615920580930366,0,1,1,-5,-26,-1,-26,-7
1615920580930366,2,0,-4,5,37,1,14,5
1615920580938643,-1,-5,-5,-4,-21,-4,-22,-2
1615920580938643,1,3,4,-3,32,-3,17,0
1615920580953712,-1,0,-1,2,5,7,10,1
1615920580953712,0,0,4,1,-22,-5,-2,-1
1615920580955600,1,1,-5,-4,-43,-2,3,2
1615920580955600,0,-3,-1,6,59,21,-3,1
1615920580967568,5,3,3,-7,-45,-31,-9,1
1615920580967568,-3,-2,0,3,-5,11,-20,-4
1615920580976572,-2,-1,1,-4,34,0,7,-10
1615920580976572,1,1,-1,2,-41,-26,-2,3
1615920580989717,-5,-7,-11,-1,12,6,-5,-4
1615920580989717,-2,0,7,6,27,-20,0,-2
1615920580998676,0,1,1,0,20,-28,2,7
1615920580998676,-4,-1,-3,-8,-24,10,-29,-24
1615920581014631,1,-2,-7,-3,34,-13,-4,5
1615920581014631,-4,2,7,0,28,0,-9,-6
1615920581015628,0,-2,-2,0,-53,0,-1,-1
1615920581015628,-4,-4,-1,1,-17,14,-14,4
1615920581027595,0,1,1,1,19,5,14,1
1615920581027595,0,-3,-6,-7,-16,-33,-3,-3
1615920581036571,-1,2,2,-2,8,-3,6,1
1615920581036571,-2,-1,-1,2,7,18,-3,3
1615920581049562,1,1,0,5,-17,4,5,-2
1615920581049562,-3,-3,-2,-4,-5,-8,-5,-4
1615920581059523,0,1,0,5,-27,14,-2,-1
1615920581059523,2,3,2,-5,-19,-10,1,2
1615920581072479,-4,-2,4,6,25,-24,-1,-3
1615920581072479,2,-1,-7,-6,8,-7,17,5
1615920581081451,-4,-5,2,-6,-2,-9,-19,-7
1615920581081451,-1,-2,-1,3,-42,-1,5,-2
1615920581087435,-3,-1,-1,-9,-44,10,0,-2
1615920581087435,1,-1,0,2,11,6,-13,6
1615920581096411,0,-1,-3,1,30,-3,31,-3
1615920581096411,2,1,2,-2,21,-4,12,3
1615920581110377,-3,-3,-1,-4,1,8,-18,-5
1615920581110377,0,-1,-3,-4,-16,12,38,6
1615920581119350,-2,-1,-2,6,14,-1,-26,-1
1615920581119350,0,3,5,4,18,-15,2,1
1615920581134309,-2,-1,-2,1,7,12,19,1
1615920581134309,0,-1,2,-4,44,15,-14,-5
1615920581140294,3,-2,-6,1,21,-9,13,22
1615920581140294,0,0,-3,0,56,16,9,-6
1615920581147275,0,1,8,1,-63,-19,-3,-1
1615920581147275,-2,-2,-3,1,-18,-14,-19,-3
1615920581156277,-1,1,-1,-7,-5,2,1,0
1615920581156277,-2,-2,-3,-7,2,-10,-11,0
1615920581170312,0,-1,-4,5,43,28,30,3
1615920581170312,-2,-3,-3,-2,-22,0,-2,-3
1615920581186131,-1,-1,3,-1,7,5,-47,-7
1615920581186131,-1,-1,-1,-6,-23,-9,18,-1
1615920581193125,-2,-2,-5,2,11,-2,2,-4
1615920581193125,0,0,-3,2,-47,15,-5,4
1615920581201091,0,-2,-3,-11,1,2,-1,-6
1615920581201091,-3,-2,-1,13,93,33,-17,-7
1615920581216139,0,-2,-2,-5,-3,1,-5,-1
1615920581216139,1,1,3,-2,-12,-14,10,7
1615920581218102,-2,-1,-2,-6,-1,-10,-6,-1
1615920581218102,-1,0,4,10,-24,-10,-19,-3
1615920581230095,-1,-1,-2,0,17,-9,20,2
1615920581230095,-3,-3,-3,-2,-5,6,-4,-7
1615920581239083,-1,2,2,3,25,1,13,-7
1615920581239083,-1,-4,-5,-8,-27,-9,-24,14
1615920581260987,-2,-3,-3,-6,0,15,-18,-13
1615920581260987,2,0,0,5,-7,8,18,1
1615920581262980,-2,-4,-3,1,-15,9,-11,-4
1615920581262980,0,1,-4,-4,-10,-7,16,5
1615920581275945,1,-1,1,-1,-6,-6,-17,1
1615920581275945,1,1,-2,-7,-35,15,-4,2
1615920581282964,-2,-3,1,7,0,-2,3,-8
1615920581282964,-2,-2,-7,-7,-15,-26,1,0
1615920581298908,0,2,5,4,5,1,-7,-6
1615920581298908,-3,-2,-4,-2,-2,-3,5,4
1615920581300900,2,1,1,-2,-35,1,14,1
1615920581300900,2,-1,-2,-2,13,1,1,-1
1615920581312845,-5,-4,-5,-5,9,7,-11,-5
1615920581312845,-2,0,-1,-4,-11,-16,-17,-5
1615920581319830,-1,2,1,-5,2,15,26,2
1615920581319830,-1,-2,0,6,8,-7,-11,0
1615920581336772,-1,2,1,2,37,-12,0,-4
1615920581336772,0,-2,-3,0,21,18,-6,-4
1615920581338767,1,1,3,1,6,1,15,5
1615920581338767,0,-4,-5,-8,-27,-2,-9,-7
1615920581358718,0,-1,5,4,5,-7,5,8
1615920581358718,-2,-1,0,-1,14,5,-1,-3
1615920581366692,-1,-1,-4,-4,8,-11,-19,6
1615920581366692,-5,-5,2,-1,5,12,17,-11
1615920581373673,0,0,-6,-7,-15,9,4,3
1615920581373673,-2,-1,1,4,3,-31,-3,-7
1615920581379701,0,-1,-4,-5,-24,0,4,3
1615920581379701,-2,-2,-2,0,-2,-11,-2,-3
1615920581396638,2,-3,-5,-4,29,-1,21,6
1615920581396638,-1,0,7,1,-35,-16,-24,-5
1615920581397636,-2,-2,1,-2,18,-14,-9,-8
1615920581397636,0,2,1,1,-42,9,2,2
1615920581409602,0,2,-2,4,67,20,-10,0
1615920581409602,-3,-3,-3,1,-31,6,15,3
1615920581418600,2,-2,-3,4,15,6,6,1
1615920581418600,-2,1,3,-11,-4,-9,-33,-7
1615920581441516,-2,-3,-2,-3,-42,-1,3,6
1615920581441516,-1,-1,-1,2,-5,-6,3,-1
1615920581447500,-4,-2,-4,-4,21,5,-14,-5
1615920581447500,1,3,2,-1,-16,15,19,-2
1615920581456474,1,0,-3,4,27,14,5,5
1615920581456474,-2,-3,-4,-5,17,0,-6,-4
1615920581457472,-2,1,2,9,0,-4,-10,-4
1615920581457472,-3,0,-3,-2,-9,-19,7,-2
1615920581470441,2,-1,1,-1,-17,11,-13,5
1615920581470441,-5,-2,2,-2,29,-18,9,-18
1615920581478469,0,0,-1,-2,-10,3,-4,-2
1615920581478469,2,0,2,4,27,25,24,3
1615920581492438,0,1,2,-3,-50,-31,-24,-2
1615920581492438,1,0,-4,-1,3,15,2,8
1615920581501453,-3,-2,1,-2,-30,-16,1,-1
1615920581501453,-5,-4,-4,-2,9,11,-3,-3
1615920581516612,-1,-1,0,2,-33,-14,8,-6
1615920581516612,1,-1,-4,-4,-15,3,-7,10
1615920581518603,-1,0,0,2,52,-1,4,-3
1615920581518603,2,-2,-1,-1,-18,-9,1,4
1615920581529574,-1,0,2,2,-4,8,-6,-1
1615920581529574,2,1,2,-1,12,-3,30,0
1615920581538577,0,-2,-4,-4,22,32,-4,-2
1615920581538577,1,1,4,4,-1,-25,-6,3
1615920581553638,-3,-1,-2,-2,17,13,-2,-6
1615920581553638,0,0,-1,-3,-8,5,3,-2
1615920581560520,-2,-3,-2,-10,-30,-9,-3,2
1615920581560520,2,0,-7,3,8,0,-2,-1
1615920581576501,0,-1,-2,1,12,23,1,1
1615920581576501,-2,-2,0,3,-31,-7,-33,-3
1615920581584459,-1,-2,1,-4,-23,-6,14,-7
1615920581584459,-4,0,-3,-8,34,5,-12,-6
1615920581590443,0,1,-1,3,-53,-27,6,8
1615920581590443,2,-2,-2,-5,-13,-2,14,7
1615920581599418,1,1,0,5,7,-27,-30,7
1615920581599418,0,-2,0,-1,-4,-9,3,-9
1615920581613382,-3,1,3,1,33,-9,0,-6
1615920581613382,1,2,2,1,13,26,11,3
1615920581620362,0,-1,2,2,-30,-21,10,4
1615920581620362,1,1,2,4,5,11,-2,2
1615920581636343,-3,-3,-2,-8,-29,-27,-14,-8
1615920581636343,0,0,1,-4,-26,-22,-14,0
1615920581639314,-3,-5,0,1,29,14,-26,-8
1615920581639314,-1,2,4,3,-74,-1,-11,2
1615920581650282,0,-3,-6,-6,0,-13,20,1
1615920581650282,-1,1,-1,12,35,-1,-42,-6
1615920581659257,0,2,0,-2,-6,-3,8,0
1615920581659257,-2,-2,-3,-4,-11,-12,18,-15
1615920581673243,2,-2,-5,-8,63,14,18,9
1615920581673243,-3,-4,0,0,4,-2,0,-5
1615920581680225,1,0,-3,7,-14,4,3,0
1615920581680225,-3,-2,2,-2,-5,10,-21,-4
1615920581696159,1,-1,1,3,-21,9,-12,-3
1615920581696159,-1,-3,-5,-5,13,-11,14,-2
1615920581698154,-1,-1,-2,-5,7,5,10,-2
1615920581698154,-1,1,-1,4,49,-3,-2,6
1615920581710228,-2,0,7,6,-41,0,23,1
1615920581710228,-2,-1,-2,-3,6,18,-4,1
1615920581719224,4,0,-2,-7,14,-16,8,6
1615920581719224,-2,-5,-3,6,2,2,4,6
1615920581741192,-2,-2,-4,-1,50,14,1,-3
1615920581741192,0,0,0,-3,-31,2,-8,-2
1615920581743170,-1,0,-1,4,48,22,-15,-9
1615920581743170,1,0,-2,-8,-1,7,25,4
1615920581756372,-2,-2,-5,-2,-18,-38,-14,-7
1615920581756372,2,1,1,1,-16,6,-3,3
1615920581757690,-2,-1,-2,-7,-13,4,-18,-3
1615920581757690,-1,-4,-1,-3,-11,-20,7,0
1615920581770097,-1,-2,1,-1,-18,-2,-30,-1
1615920581770097,-2,-1,-1,0,7,1,6,-4
1615920581779075,-2,-1,0,1,-13,-6,-10,-3
1615920581779075,1,-2,-7,3,47,5,4,5
1615920581794066,-2,1,11,-2,-31,-7,1,-2
1615920581794066,-1,-1,-2,-3,73,-10,0,-5
1615920581801047,1,-1,-4,-2,-19,19,12,2
1615920581801047,-1,0,0,-2,-5,-3,-4,0
1615920581817004,1,-3,-6,0,-23,5,-5,-5
1615920581817004,-1,-3,-3,1,34,15,-9,-9
1615920581822995,-1,0,-2,0,-23,-9,27,12
1615920581822995,0,1,4,-1,-2,1,-35,-3
1615920581829823,-2,0,-4,-6,45,14,45,-1
1615920581829823,-1,-2,0,0,0,4,16,4
1615920581838799,-5,-3,-3,1,-71,-3,-21,-11
1615920581838799,-2,-2,-4,-1,12,7,-1,-6
1615920581852762,1,0,-2,-1,-16,-5,-21,7
1615920581852762,-2,-3,-8,-6,-11,18,10,1
1615920581861738,2,2,8,-3,-2,-13,6,0
1615920581861738,-1,0,1,7,21,6,-16,-3
1615920581875701,-2,-2,-5,-8,-17,8,-12,-2
1615920581875701,1,2,6,1,14,-18,2,2
1615920581883710,-3,-4,-7,-6,-7,-22,-9,-4
1615920581883710,-1,-4,-1,-5,-14,14,16,-3
1615920581889687,-1,0,-2,0,16,-17,7,7
1615920581889687,2,1,-1,5,-14,-12,8,3
1615920581898639,0,0,-1,3,-40,5,1,-1
1615920581898639,1,0,5,1,-7,2,5,2
1615920581921578,-3,-1,-5,-1,-10,-3,-9,-8
1615920581921578,-1,-1,0,-3,-11,31,30,1
1615920581927562,-3,0,-3,-4,-4,-24,-16,1
1615920581927562,-1,-3,-3,0,4,-12,5,4
1615920581937559,0,-1,-1,4,-49,6,-14,-2
1615920581937559,-5,-2,4,1,-1,-13,-22,-6
1615920581939530,1,-2,-3,0,63,18,16,-2
1615920581939530,-2,1,-4,-1,-23,-15,-3,0
1615920581950504,1,2,5,-3,38,17,-3,-6
1615920581950504,-5,-3,-4,-1,-38,-7,1,-6
1615920581964579,0,0,0,1,29,-19,-39,3
1615920581964579,-1,0,-3,-5,8,-4,-12,-3
1615920581973683,-1,0,6,-3,-74,-11,-12,-4
1615920581973683,0,-2,-3,3,-10,5,9,5
1615920581979581,-1,-1,1,0,6,19,10,-8
1615920581979581,1,-1,1,1,37,13,16,6
1615920581996539,-1,1,0,-4,4,-17,-14,-4
1615920581996539,1,2,0,-8,-11,-7,-19,1
1615920581997536,-1,-1,-1,2,-8,-7,0,3
1615920581997536,-1,2,9,2,15,7,7,4
1615920582019482,-6,-6,-8,-3,24,9,22,-5
1615920582019482,-1,-1,1,-1,15,-1,-9,-1
1615920582021473,0,-2,-3,-5,30,1,-15,-3
1615920582021473,-2,-2,-2,-6,-27,-9,-16,-3
1615920582033467,-2,-1,-3,1,25,9,-8,-7
1615920582033467,1,0,-3,5,-41,-6,2,10
1615920582047427,1,0,-1,2,11,3,24,1
1615920582047427,-1,1,1,-1,-17,-28,-9,-6
1615920582055413,1,1,-2,-1,-5,16,11,1
1615920582055413,-2,-2,0,-2,31,-2,-22,-8
1615920582062393,2,2,2,0,3,16,23,15
1615920582062393,-4,-3,-6,0,-36,-6,-4,-20
1615920582070390,-2,-2,0,-6,-19,-17,19,3
1615920582070390,0,-1,-2,1,60,10,-4,-5
1615920582094306,-4,-2,6,-4,-81,-1,10,-3
1615920582094306,-2,-2,-4,4,67,17,-16,4
1615920582094306,-1,-2,-9,-2,38,21,16,-1
1615920582094306,0,1,8,0,-31,-7,-11,-6
1615920582100293,-1,-1,-4,0,9,10,8,1
1615920582100293,-2,-3,-6,-5,-18,-6,10,-3
1615920582124333,-1,2,3,8,19,-7,-16,-2
1615920582124333,0,2,0,1,21,1,-7,4
1615920582125221,-2,-2,-2,-2,20,6,2,-4
1615920582125221,-1,-1,0,-7,-8,-8,2,0
1615920582130347,-1,-2,-1,-1,-5,0,-17,1
1615920582130347,-1,-1,-3,-4,-3,-1,7,-3
1615920582139297,-1,0,0,2,17,-2,20,-1
1615920582139297,-2,-2,-5,-3,-60,-26,-15,-1
1615920582153264,-1,-2,-3,1,41,15,-6,2
1615920582153264,-2,0,0,0,-1,-11,20,-3
1615920582160246,0,1,-1,-7,32,9,9,-6
1615920582160246,-4,-2,0,6,-13,6,8,3
1615920582175202,0,-2,-4,-8,-18,1,-15,2
1615920582175202,2,2,7,3,10,-3,-29,4
1615920582182187,-4,-5,-6,6,38,6,1,-11
1615920582182187,0,-3,-9,-6,6,5,13,1
1615920582190166,-1,0,4,5,3,7,6,-1
1615920582190166,0,1,-4,-2,0,-3,-1,2
1615920582199138,-2,2,1,-1,-38,-5,-15,4
1615920582199138,-1,-3,3,-12,9,-1,-10,-1
1615920582213105,0,-1,-4,3,-11,-22,-8,-4
1615920582213105,-3,-3,4,-3,-37,-12,24,0
1615920582227133,1,0,-1,3,-4,-7,-25,3
1615920582227133,-3,-3,-5,-1,45,-11,16,-3
1615920582236159,-1,0,2,-3,16,1,-5,-1
1615920582236159,-3,-1,-4,1,1,-1,7,-7
1615920582242241,-1,-4,-3,-7,2,2,3,-2
1615920582242241,0,-1,-1,15,34,8,-9,1
1615920582266085,-3,0,3,1,-41,-19,-1,-4
1615920582266085,-2,-3,4,0,-10,-11,-10,0
1615920582268073,-3,0,-2,-3,21,-6,-7,-4
1615920582268073,2,2,-3,-5,-21,19,25,7
1615920582272067,3,1,2,0,2,-2,1,2
1615920582272067,0,-2,-5,-1,10,8,12,3
1615920582282041,-1,0,-1,7,2,21,-14,-8
1615920582282041,2,3,7,-8,-18,5,11,1
1615920582295214,-4,-5,-6,-1,11,-6,-6,1
1615920582295214,-1,-4,-8,-6,31,18,16,1
1615920582302193,-1,1,1,1,-13,-9,6,-12
1615920582302193,-2,0,1,-5,-54,-31,-21,-4
1615920582319129,0,-2,-2,-3,20,24,16,1
1615920582319129,-1,-2,-1,2,-5,-7,1,1
1615920582320126,-1,0,1,4,-5,-3,-10,-2
1615920582320126,-2,-1,0,5,2,3,1,0
1615920582332088,0,-1,-1,-4,-13,5,-9,-8
1615920582332088,-1,-1,-2,-5,-3,-14,20,5
1615920582342062,0,-2,-5,-3,36,17,-2,4
1615920582342062,0,-3,-1,-4,-23,0,-6,0
1615920582356028,-2,-1,1,0,-66,-31,11,1
1615920582356028,-2,2,1,0,12,-1,-27,-12
1615920582362008,2,0,1,0,-12,-6,12,7
1615920582362008,2,2,4,1,9,-2,-4,2
1615920582378968,-3,-2,-6,0,32,16,11,0
1615920582378968,0,1,-2,-4,-21,-11,-29,-4
1615920582380963,-3,-2,0,-9,-30,-3,-4,-2
1615920582380963,-4,-1,-3,3,39,-3,-16,-8
1615920582392931,1,0,-2,5,20,-8,31,7
1615920582392931,-3,1,5,-8,1,16,-17,-8
1615920582401927,1,0,-5,-1,-18,-6,11,10
1615920582401927,3,-1,-1,3,12,0,13,3
1615920582415869,-3,1,-1,-3,10,6,-25,-1
1615920582415869,-3,-4,-3,-6,-89,-31,1,-8
1615920582422850,0,-2,0,2,25,-31,-1,1
1615920582422850,-2,-2,-4,-4,-8,17,10,0
1615920582438480,0,-2,3,0,31,12,4,-2
1615920582438480,2,0,1,5,-4,5,-2,5
1615920582441374,0,-1,0,-9,-45,-7,2,-2
1615920582441374,0,0,-1,5,-3,10,27,-4
1615920582452349,-2,-1,1,7,2,-9,-9,1
1615920582452349,0,-3,-8,-7,2,11,-4,-2
1615920582461320,0,0,-1,-1,17,-19,-15,-3
1615920582461320,-1,-1,-1,-2,15,17,11,3
1615920582484232,2,-1,-1,-4,-28,-13,-11,-4
1615920582484232,1,0,-2,6,61,4,15,0
1615920582485147,-3,-4,-4,0,10,-13,0,0
1615920582485147,0,-1,-2,-10,-24,-3,-3,-1
1615920582499093,-1,-2,-3,3,17,0,15,1
1615920582499093,-1,-2,-2,-5,-15,-3,-6,-1
1615920582500092,-3,-2,-1,-1,-16,-2,-5,-6
1615920582500092,-1,3,4,2,18,13,-2,1
1615920582512059,-1,-2,-2,-4,7,-11,-13,-4
1615920582512059,0,0,2,5,-14,-6,4,2
1615920582521141,-1,-2,-1,-3,18,26,5,2
1615920582521141,0,-2,-2,7,27,-25,-25,0
1615920582544117,0,0,1,1,-20,9,8,6
1615920582544117,-4,-2,-2,-3,-3,16,7,-11
1615920582546112,0,0,0,-1,-41,-30,-4,-1
1615920582546112,-3,-2,-4,1,27,-4,-26,-6
1615920582559171,-1,0,-5,-10,-1,4,25,2
1615920582559171,-1,-1,-4,6,19,-3,-28,-1
1615920582560170,0,1,2,-2,-9,-10,14,1
1615920582560170,-1,-3,-2,-1,-13,14,7,1
1615920582573041,-5,-4,-1,-4,-10,-5,-3,-8
1615920582573041,-2,0,-3,-5,12,-2,-7,3
1615920582582026,0,-1,-4,-2,20,9,-10,-6
1615920582582026,-1,-3,-2,-1,-21,-6,-3,1
1615920582595981,2,0,7,9,33,-12,-17,-5
1615920582595981,1,-1,0,-5,-15,-12,9,0
1615920582601965,-4,1,2,3,-53,8,-6,0
1615920582601965,-2,-3,-6,-6,22,20,8,1
1615920582618923,1,0,0,0,-12,36,-21,-4
1615920582618923,-1,-3,-1,0,19,4,55,5
1615920582620918,-1,-1,-3,0,-9,-19,-8,-6
1615920582620918,-1,0,-4,-2,-6,2,5,5
1615920582632882,0,4,1,2,-26,-1,-2,-3
1615920582632882,1,-3,-4,-5,-14,-5,-12,13
1615920582641858,-1,-3,-4,-6,40,17,9,10
1615920582641858,-2,-2,-1,-4,-17,-5,-17,-18
1615920582655821,0,1,5,3,-22,-21,-20,1
1615920582655821,-4,-1,-1,4,-1,7,-11,-8
1615920582662831,0,0,-5,-3,26,17,28,4
1615920582662831,1,-1,0,-5,-14,-15,-22,3
1615920582678760,1,1,1,0,-19,3,15,2
1615920582678760,0,0,1,2,22,16,-38,-7
1615920582680779,-3,-3,-4,-1,1,28,2,-1
1615920582680779,-2,2,0,-2,-14,1,0,-4
1615920582692746,-1,-1,2,-2,4,4,16,2
1615920582692746,-3,-2,-1,1,30,14,-2,-3
1615920582701698,0,-2,0,5,-30,-5,0,-6
1615920582701698,3,0,-1,-3,2,-3,10,0
1615920582715700,-1,-1,-4,-8,-20,-21,-17,-3
1615920582715700,-3,-1,-2,2,12,-13,11,2
1615920582724673,0,1,3,-3,24,-5,-17,-2
1615920582724673,-4,-2,0,4,-13,-2,30,1
1615920582738633,1,-1,-1,1,65,5,-13,1
1615920582738633,0,1,-3,-7,-24,-19,23,4
1615920582744617,0,1,1,5,20,0,-49,-12
1615920582744617,0,-1,-3,-2,-11,6,-7,3
1615920582752662,0,-1,-1,-9,3,11,3,-1
1615920582752662,1,0,1,6,3,3,3,14
1615920582761620,-4,-2,-2,-3,-34,-24,-10,-15
1615920582761620,0,1,3,4,-10,1,22,-2
1615920582783580,-1,-3,-2,-10,-5,-13,-15,-2
1615920582783580,-1,-4,-7,-7,-72,-26,7,0
1615920582785559,4,2,7,8,-31,9,10,10
1615920582785559,1,2,5,1,21,0,-18,-1
1615920582798521,-5,-4,-8,-1,-13,5,8,-11
1615920582798521,2,3,1,-1,-7,0,4,8
1615920582800513,-3,-1,4,-1,56,-14,7,-1
1615920582800513,-4,-2,-2,2,-12,-10,-14,-6
1615920582812481,0,0,-1,-2,3,1,7,4
1615920582812481,1,-1,-2,-1,4,9,-9,-8
1615920582821457,0,-1,-5,2,21,20,23,1
1615920582821457,0,-1,5,0,3,-15,-6,4
1615920582836420,-2,0,-1,-1,-11,-7,7,-1
1615920582836420,-2,1,2,4,20,7,-14,-5
1615920582850383,-2,-2,0,-17,6,3,8,0
1615920582850383,-1,-3,-8,1,-8,-7,-3,2
1615920582859419,-1,-2,-1,8,4,-7,-16,-3
1615920582859419,2,1,0,1,57,14,13,-1
1615920582860352,1,-2,1,2,8,-13,-3,1
1615920582860352,-1,0,1,-5,8,-1,-7,0
1615920582872349,-3,-1,-3,4,0,-12,2,-2
1615920582872349,-2,-2,-1,1,33,4,-17,-4
1615920582881302,1,-1,2,-1,-18,-4,-2,2
1615920582881302,0,-1,2,-1,-6,29,1,-2
1615920582895262,0,0,-1,-1,0,-4,7,1
1615920582895262,0,2,-1,1,-24,-16,-3,-3
