timestamp,emg1,emg2,emg3,emg4,emg5,emg6,emg7,emg8
1615918442829866,1,-1,3,-15,-4,-2,1,-1
1615918442829866,0,1,3,-26,1,3,1,-1
1615918442831861,0,2,33,45,4,-1,-2,-1
1615918442831861,-1,1,-7,-8,-2,1,3,0
1615918442835850,-1,-2,-12,10,-1,0,-2,-3
1615918442835850,-1,-6,-11,-9,1,0,1,-3
1615918442852805,4,8,24,19,-3,-3,-4,2
1615918442852805,1,-2,8,-8,0,0,-1,0
1615918442859786,-1,-4,-14,-4,0,-1,10,-2
1615918442859786,-3,-1,1,20,-3,-3,-6,-2
1615918442861781,-3,-4,-33,-23,-5,1,0,-1
1615918442861781,-1,-2,-15,5,-1,2,2,2
1615918442882725,1,1,3,-14,-1,0,1,0
1615918442882725,1,-1,10,-1,-4,-3,-1,-1
1615918442884720,-1,-1,14,9,3,1,-2,-1
1615918442884720,-6,-10,-29,-6,-1,-1,-2,-5
1615918442896688,1,-3,-12,-15,-1,-1,-4,-1
1615918442896688,2,4,9,-10,0,-1,-1,1
1615918442905664,2,4,3,-8,1,0,9,2
1615918442905664,-1,-2,13,3,-1,0,-11,-1
1615918442920648,-3,-6,-12,10,0,-1,1,1
1615918442920648,-1,0,-12,-9,0,2,-1,-1
1615918442921621,-1,-1,0,-3,2,-2,0,-2
1615918442921621,-2,-3,-7,-16,-2,-1,3,-3
1615918442941596,1,6,15,8,2,0,-2,2
1615918442941596,-3,1,8,5,2,5,1,-1
1615918442950544,0,-3,-17,12,-1,-1,-2,1
1615918442950544,-1,-1,0,-12,-2,1,0,-1
1615918442956529,1,-2,-25,-25,-2,-2,-3,-1
1615918442956529,-1,-2,13,14,0,-3,6,0
1615918442965504,-3,-3,-5,13,-3,-4,-12,-2
1615918442965504,0,2,11,-14,0,-2,-2,0
1615918442980479,-4,-3,2,2,-3,-4,-5,-3
1615918442980479,-3,-5,-22,-22,-4,0,7,0
1615918442981471,-1,3,31,2,0,2,9,2
1615918442981471,2,1,12,21,2,5,-6,0
1615918443002439,-4,-2,-13,9,0,-4,-2,-1
1615918443002439,0,-2,-4,-16,1,-2,-7,-1
1615918443004411,-4,-7,-17,-5,-4,-6,-1,-3
1615918443004411,0,3,10,4,0,5,4,1
1615918443016404,1,4,3,-2,2,2,0,0
1615918443016404,-1,-4,1,16,-2,-6,-5,-1
1615918443025354,-2,-6,-20,-18,0,-1,-1,1
1615918443025354,0,5,-1,-20,-4,-4,-1,2
1615918443040315,-2,-3,10,4,-3,-2,2,-2
1615918443040315,-2,-3,-31,21,1,0,-7,-1
1615918443042310,3,3,23,9,0,5,3,0
1615918443042310,-2,-4,-11,-5,-1,-9,-4,-2
1615918443062280,0,0,-3,3,-3,-3,-2,0
1615918443062280,-4,-2,-12,-9,-4,-3,0,-3
1615918443064275,0,2,9,1,1,1,3,1
1615918443064275,-2,-2,-2,20,1,-1,0,0
1615918443085194,-3,-4,-29,-20,0,0,-1,-3
1615918443085194,2,10,62,21,0,0,1,2
1615918443087189,-2,-2,-32,-18,-2,-4,-5,-2
1615918443087189,-3,-6,6,-8,-3,-4,1,-5
1615918443100178,2,4,9,27,1,3,0,3
1615918443100178,-2,-5,-18,-1,-3,0,-1,-2
1615918443102178,0,-1,-4,-24,0,0,-5,0
1615918443102178,0,-5,-23,9,-1,-4,2,-2
1615918443123094,-1,-2,-6,-8,-2,0,2,0
1615918443123094,-1,1,7,7,-3,-1,-1,0
1615918443124115,-1,1,4,2,1,-1,3,0
1615918443124115,-5,-7,-16,-6,-6,-5,-3,-3
1615918443145035,1,1,27,-6,0,0,-4,0
1615918443145035,2,4,4,35,2,0,10,1
1615918443147029,-4,-8,-16,-21,-6,-2,-8,-2
1615918443147029,-2,2,-6,-14,1,3,4,-2
1615918443159022,1,1,41,29,-1,-8,-1,-2
1615918443159022,1,-2,-13,-27,-3,-4,0,0
1615918443167974,1,0,9,-10,-2,1,3,-1
1615918443167974,-1,0,-15,-10,1,1,-2,-1
1615918443182933,0,7,57,53,1,3,0,-1
1615918443182933,1,-4,-19,-10,-1,0,-4,-2
1615918443183930,-2,-2,-15,-7,0,0,2,-1
1615918443183930,2,5,27,-2,3,3,5,2
1615918443205092,-2,-6,-32,-12,-2,-8,-14,-4
1615918443205092,0,-1,16,-16,1,1,3,0
1615918443207063,2,-1,-6,18,1,1,-2,-1
1615918443207063,-4,-2,17,6,-2,-2,-3,-1
1615918443228297,-1,-3,-13,4,-2,4,10,-1
1615918443228297,-3,-3,4,-28,-1,-4,-4,-2
1615918443229275,0,2,19,34,1,0,-2,-1
1615918443229275,3,3,10,14,-1,-4,9,2
1615918443242718,-2,-1,-9,0,-1,-4,-12,-3
1615918443242718,-2,-4,-22,-19,-1,0,-1,-4
1615918443244693,-3,-1,15,6,-1,0,-1,-2
1615918443244693,0,1,9,18,-3,-6,-5,0
1615918443264637,-2,-6,-28,-24,-1,2,5,-1
1615918443264637,1,3,-13,13,1,-1,4,0
1615918443272616,-1,-2,-3,-6,-3,-2,-11,-1
1615918443272616,-2,-6,-21,-21,0,2,-2,-3
1615918443279598,-1,2,14,40,2,-2,2,-2
1615918443279598,0,0,-7,-7,0,1,0,1
1615918443286602,0,1,3,7,-2,-3,2,0
1615918443286602,-2,0,6,-6,-3,-3,-5,-2
1615918443302535,0,-6,-19,-22,-2,-1,-4,-1
1615918443302535,-3,-3,-1,0,-3,-3,-4,-2
1615918443304530,1,4,16,15,2,-1,0,0
1615918443304530,-2,-6,-31,-26,-3,-1,0,-1
1615918443325498,-5,-6,-11,-8,-3,-2,-1,-3
1615918443325498,-1,4,22,24,-1,-4,-5,0
1615918443327469,0,-2,-25,-19,0,-1,-1,0
1615918443327469,3,5,-9,7,0,3,5,3
1615918443339433,-3,-3,11,3,1,1,3,0
1615918443339433,-1,-1,-3,-17,-4,-8,-8,-2
1615918443346413,-1,-5,-10,-3,-1,-3,-6,-1
1615918443346413,1,2,11,14,0,3,1,0
1615918443363392,1,3,-16,0,3,0,-1,0
1615918443363392,-2,-3,1,-21,-3,4,3,0
1615918443365363,-4,-6,-14,12,-1,-2,3,-2
1615918443365363,1,1,26,31,3,-2,-7,-3
1615918443392291,-2,-1,-7,-22,-1,-1,-1,-3
1615918443392291,0,-5,6,-9,1,1,1,-1
1615918443394286,-1,-2,-8,5,-5,-5,-3,-3
1615918443394286,0,-2,-6,-10,0,3,4,-1
1615918443399296,0,3,11,-14,-2,-5,6,-1
1615918443399296,0,3,15,31,2,-5,-19,-3
1615918443406255,-1,-5,-32,-33,1,4,6,-1
1615918443406255,0,2,38,45,-1,-3,-5,0
1615918443423209,-2,-1,-8,-10,-5,-3,-4,-2
1615918443423209,-2,-3,-23,-5,-3,-4,4,0
1615918443424206,-2,-2,9,-13,-5,-1,4,-2
1615918443424206,-2,-1,-5,9,0,0,-3,-1
1615918443445150,0,-7,-22,-10,2,-1,0,1
1615918443445150,0,-1,-3,-16,-1,0,2,-3
1615918443447144,2,11,39,14,0,1,-2,3
1615918443447144,-2,-3,-7,-5,0,2,2,-2
1615918443460111,-3,-4,-22,-6,-3,-3,-5,-1
1615918443460111,1,-1,3,-5,-2,4,2,2
1615918443466094,-1,-3,-9,-7,0,-1,1,1
1615918443466094,-2,-4,-18,-34,3,1,2,-2
1615918443483072,2,3,14,0,-3,0,2,1
1615918443483072,-1,-3,-8,12,-1,-4,-10,-2
1615918443484045,-3,-5,-7,-10,-1,-2,-1,-3
1615918443484045,-2,-2,1,3,-3,-2,-4,-2
1615918443505020,-3,-9,-37,-26,-6,1,5,-1
1615918443505020,3,11,26,19,3,1,7,4
1615918443506985,1,-2,1,0,-2,-3,-5,-2
1615918443506985,-4,-3,-14,-19,-3,-3,4,-2
1615918443519949,0,1,19,22,1,-1,-17,1
1615918443519949,-2,-1,-4,7,-2,-2,0,-1
1615918443526931,0,-2,-7,-31,-3,-4,3,-1
1615918443526931,-1,-1,-7,17,-2,1,-1,1
1615918443542888,0,4,29,4,3,4,1,-1
1615918443542888,-3,-3,-2,-11,-2,-4,-2,-1
1615918443544883,-2,0,10,9,-1,0,-1,-2
1615918443544883,0,-6,-25,-29,-3,-6,-3,1
1615918443564829,1,6,28,3,-1,1,6,3
1615918443564829,-3,-3,-5,18,3,2,3,-1
1615918443572809,-2,-1,5,16,2,1,-2,-2
1615918443572809,0,0,-4,-13,-2,-1,-1,0
1615918443578816,-1,0,-5,18,2,-5,-4,0
1615918443578816,-1,-4,-15,-30,-4,1,3,0
1615918443595747,-2,-3,-11,16,0,-5,-2,-2
1615918443595747,1,4,21,8,1,-1,-4,-1
1615918443602728,-1,-2,-1,-4,0,3,2,1
1615918443602728,-3,-4,-15,-9,-4,-2,-4,-4
1615918443604723,-4,-3,-32,-18,0,0,3,-3
1615918443604723,3,3,19,36,2,3,-3,1
1615918443625667,-2,-2,-12,-27,-3,-6,-3,-1
1615918443625667,1,4,8,40,3,0,1,-1
1615918443626664,0,-1,-11,-5,1,2,6,1
1615918443626664,-1,0,-2,-22,-6,-3,-6,-2
1615918443638633,-1,-2,16,16,1,5,2,-1
1615918443638633,-2,-5,-16,-14,2,-2,-2,-2
1615918443647609,1,5,51,26,-2,-1,-6,0
1615918443647609,1,-1,-13,-5,1,-1,3,-1
1615918443662568,-1,-1,-10,-10,-1,-2,-4,-1
1615918443662568,-1,-3,-5,5,-1,-1,-2,0
1615918443664564,1,0,3,-5,-3,-1,4,0
1615918443664564,-5,-9,-21,6,-2,-3,-8,-6
1615918443685507,-1,-2,2,-18,-3,-2,-2,-2
1615918443685507,1,2,9,4,0,3,6,1
1615918443686505,1,0,-5,-6,1,1,-6,-1
1615918443686505,-1,0,15,29,-3,-2,0,-1
1615918443698472,-3,-6,-19,-33,-5,-4,7,-2
1615918443698472,-1,0,-6,-3,-3,-2,-6,0
1615918443707449,0,-1,-8,13,2,0,2,-2
1615918443707449,-3,1,10,-28,-2,-1,-9,-2
1615918443722408,-3,-1,-5,6,-1,0,5,1
1615918443722408,-5,-7,-5,-29,-5,-7,-1,-3
1615918443724403,0,5,24,13,-2,1,0,5
1615918443724403,-1,-1,11,14,2,1,4,-1
1615918443745347,-1,1,15,16,2,3,-4,-1
1615918443745347,-3,-5,-8,-15,-2,-6,-3,-1
1615918443747341,-1,1,-1,-4,-5,-6,-3,-1
1615918443747341,-2,-3,-12,-6,-1,1,3,0
1615918443759310,1,5,12,4,2,-2,-4,-1
1615918443759310,-1,-1,3,13,1,3,-3,0
1615918443768286,-2,-3,11,-11,0,2,2,0
1615918443768286,0,-2,-6,17,4,-3,0,-2
1615918443783245,-1,1,-3,-3,-2,-3,4,0
1615918443783245,-1,-5,-6,-10,-2,0,-16,-3
1615918443784244,1,1,-1,-22,2,2,1,3
1615918443784244,0,-1,18,3,3,3,2,-2
1615918443805187,-3,-1,7,13,-2,-4,-10,-2
1615918443805187,1,3,8,-2,1,-1,4,1
1615918443807182,-5,-3,0,2,-3,-3,-2,-4
1615918443807182,0,5,41,-3,1,0,-2,-1
1615918443828126,3,1,-8,33,1,1,2,2
1615918443828126,1,2,3,-1,-2,0,3,2
1615918443829124,-1,-7,-27,-10,0,2,-8,-1
1615918443829124,0,1,-12,1,0,-1,3,2
1615918443850067,-1,3,21,23,1,0,1,-1
1615918443850067,-1,2,-8,13,-1,0,8,-1
1615918443852062,-2,-7,-6,-9,-2,-1,-11,-3
1615918443852062,0,1,7,8,-2,-1,0,1
1615918443873006,-1,0,-17,-9,0,1,0,-3
1615918443873006,0,-3,-12,-25,-1,-1,0,1
1615918443874004,2,7,44,47,3,1,7,2
1615918443874004,-2,-5,-14,-16,0,1,-3,-3
1615918443878991,-5,-6,-36,-34,-5,-5,-7,-3
1615918443878991,0,2,31,12,1,3,5,0
1615918443887966,2,10,32,39,1,-2,5,-1
1615918443887966,-3,-7,-15,-31,-4,-4,-15,-1
1615918443902925,1,-4,-18,8,-1,-1,1,2
1615918443902925,-4,-2,2,3,1,0,-2,-3
1615918443903923,-1,-3,-7,-9,0,1,-2,-1
1615918443903923,-3,4,0,30,-2,-5,1,-3
1615918443924867,-1,0,5,-17,-1,1,4,0
1615918443924867,-4,-2,-1,-8,-3,-4,-2,-3
1615918443926862,-3,0,-3,-1,-1,2,-12,0
1615918443926862,1,-2,-9,-10,-4,-3,7,1
1615918443947806,0,-2,-8,-7,2,-2,-3,-1
1615918443947806,-1,-1,-5,14,-2,-3,3,-1
1615918443949801,-4,-7,-34,-34,-3,-4,0,-3
1615918443949801,-3,-3,-18,14,0,0,-2,-2
1615918443963052,0,4,26,2,0,0,1,0
1615918443963052,0,0,3,4,-1,-1,-2,0
1615918443965046,-3,-5,-23,-24,0,1,2,-1
1615918443965046,0,2,1,4,-1,-5,-1,0
1615918443985990,-1,-2,-1,-1,2,5,13,-2
1615918443985990,-2,-2,-7,-7,-3,-9,-25,-4
1615918443986987,-1,1,3,-3,-5,-5,3,1
1615918443986987,-4,-5,-3,-17,1,0,0,-4
1615918444014914,-2,-5,-18,-4,-4,-6,-2,-2
1615918444014914,2,4,16,1,3,4,5,0
1615918444016908,-2,-1,4,13,0,-2,-4,-4
1615918444016908,1,-2,-11,4,-2,-2,-1,2
1615918444022893,-2,-4,-13,-20,-2,1,-7,-1
1615918444022893,-1,1,9,8,1,0,1,-1
1615918444024887,-1,-2,-4,4,-3,-4,-2,-2
1615918444024887,-1,-1,-11,-8,1,2,4,1
1615918444045831,1,3,19,-8,2,0,-4,-1
1615918444045831,-2,-2,-7,29,1,0,5,-1
1615918444051815,-1,-1,-27,-31,-2,2,-2,0
1615918444051815,-2,1,5,6,2,4,-1,-1
1615918444067772,-1,-3,-6,-1,-3,-9,0,-2
1615918444067772,-1,-1,10,-6,-1,2,1,0
1615918444073757,-2,-3,-8,6,2,-2,-1,-1
1615918444073757,-1,-7,-16,-10,-4,-2,1,-3
1615918444082731,0,6,27,18,0,3,-1,1
1615918444082731,2,-2,-1,-19,-2,1,4,-1
1615918444084726,-4,-2,0,56,2,-5,-2,-3
1615918444084726,1,2,4,-20,-1,0,-3,0
1615918444105671,-3,-7,-14,17,-3,-4,1,2
1615918444105671,0,1,-3,-4,-1,0,-2,1
1615918444106668,-1,-2,4,-9,-1,-2,-5,0
1615918444106668,0,1,14,-1,-1,1,0,-1
1615918444127611,-2,1,-2,1,-2,-3,-1,-2
1615918444127611,-4,-3,-18,7,2,4,5,-1
1615918444129606,0,-3,-2,-23,-6,-5,-9,-1
1615918444129606,2,5,2,6,3,4,5,2
1615918444150550,0,-1,4,-5,0,0,-1,1
1615918444150550,-1,-1,4,-3,-1,-2,-3,-2
1615918444151548,-2,-4,-2,-19,-1,-1,7,-1
1615918444151548,-3,-3,-11,-19,-1,-3,-4,-2
1615918444165511,-2,1,17,33,-1,-2,-5,-4
1615918444165511,0,-4,-20,-31,-1,-1,2,0
1615918444166508,1,3,16,13,-2,0,2,1
1615918444166508,-1,-1,16,8,-1,-3,4,0
1615918444187476,-2,-1,-24,-23,-2,0,-9,-2
1615918444187476,-2,-1,18,32,2,1,0,-2
1615918444190444,-1,-1,6,-14,-4,-5,-3,-4
1615918444190444,0,2,38,29,-3,-1,7,0
1615918444202411,-1,-6,-24,5,-1,-1,-7,-2
1615918444202411,0,2,18,-23,-2,-3,-3,-1
1615918444209394,1,-2,-13,0,3,-1,1,1
1615918444209394,-3,-2,-2,-6,1,0,-1,-2
1615918444225350,-1,-2,-2,-15,2,0,4,-1
1615918444225350,-1,1,-21,0,0,-1,-2,-1
1615918444227345,-2,-2,1,-5,-3,3,-2,-3
1615918444227345,-1,-1,-19,-6,-4,-4,0,1
1615918444248290,-2,2,20,-17,1,4,0,1
1615918444248290,0,0,3,21,-3,-3,-4,-1
1615918444249287,-1,2,-1,-1,1,2,1,0
1615918444249287,-1,-1,-15,-11,-1,0,0,0
1615918444262252,-1,-6,-26,1,0,1,-3,-1
1615918444262252,2,3,10,14,0,0,-2,3
1615918444269257,-1,-5,-15,-15,-2,2,12,1
1615918444269257,-4,-4,12,13,1,-3,-9,-5
1615918444285214,1,-3,-32,3,3,3,6,0
1615918444285214,-1,1,13,13,-2,-5,-1,0
1615918444287210,-1,1,7,-5,-1,-5,-3,-1
1615918444287210,-2,-5,-41,-21,0,0,-1,-1
1615918444308130,-1,3,10,-1,-1,2,1,1
1615918444308130,-4,-5,-24,-15,-1,-5,-3,-3
1615918444314113,1,3,8,-1,2,0,-3,0
1615918444314113,0,0,2,7,-4,0,-2,-2
1615918444322192,1,-3,-10,-13,-3,-1,1,-1
1615918444322192,-2,-2,7,14,-1,-3,-5,-2
1615918444336179,-2,-1,-13,-6,-4,-4,4,0
1615918444336179,-2,-1,-12,14,-1,3,-10,-2
1615918444345155,-2,0,7,-7,1,-1,-1,0
1615918444345155,-1,-3,-21,-14,0,3,7,-1
1615918444347125,-3,2,19,3,1,2,0,-2
1615918444347125,0,2,11,-2,1,4,4,0
1615918444368069,-1,-3,-9,-3,-1,-1,-1,-2
1615918444368069,-1,0,16,17,0,0,-2,0
1615918444369067,0,2,1,8,2,2,3,1
1615918444369067,0,-2,-2,-11,-1,-5,-4,-2
1615918444382032,0,-3,-18,-6,-3,-4,0,-2
1615918444382032,1,1,27,13,0,2,-1,2
1615918444389014,-1,-6,-11,-2,-1,-1,-4,-2
1615918444389014,0,3,13,-9,-2,-2,1,1
1615918444404971,-3,-5,-1,-31,-3,-5,-2,-3
1615918444404971,0,3,15,24,-2,-5,1,0
1615918444406966,-2,0,13,29,0,2,-3,-1
1615918444406966,-1,-4,-13,-18,-1,-3,1,1
1615918444427909,0,6,40,17,0,1,4,1
1615918444427909,-1,-6,-38,-12,0,1,-9,-3
1615918444429904,1,3,5,-8,0,0,-2,3
1615918444429904,1,0,2,-9,-1,1,3,0
1615918444449851,-3,-5,-11,10,-3,-1,-3,-3
1615918444449851,-1,-3,-4,-13,0,-3,4,-1
1615918444451846,1,-2,-3,-2,-3,2,5,-1
1615918444451846,-2,-4,-14,-12,1,-5,-9,-4
1615918444464811,-2,5,35,16,-1,-1,-2,0
1615918444464811,-1,-1,-2,-10,-3,-1,0,0
1615918444466806,1,-2,-9,11,2,0,0,1
1615918444466806,-4,-4,-14,4,-1,-5,-1,-2
1615918444487749,1,4,20,-17,-1,1,0,1
1615918444487749,-2,-2,-9,-5,-1,0,1,0
1615918444489744,-3,-4,-2,-13,2,4,-1,-2
1615918444489744,1,6,21,32,-2,-5,0,1
1615918444501736,-2,-5,-27,-1,0,-1,-5,-1
1615918444501736,-2,-2,-14,-12,-3,-2,1,0
1615918444508695,1,3,4,-15,-6,-6,-3,-2
1615918444508695,0,-3,-3,-8,-1,3,0,-1
1615918444525689,-1,1,3,12,0,-4,4,1
1615918444525689,-2,-3,3,-28,1,0,-2,0
1615918444526687,-3,-1,-3,20,-1,-5,-8,-1
1615918444526687,-1,-3,-7,3,-2,-1,3,1
1615918444547700,-1,0,1,2,2,0,6,-3
1615918444547700,1,-1,-12,-13,-1,-2,-15,-2
1615918444549695,-3,-6,-24,-7,-1,-2,-3,0
1615918444549695,1,2,14,5,2,2,-1,-2
1615918444561143,0,-3,-1,7,0,1,1,-1
1615918444561143,0,3,-4,-1,0,0,1,0
1615918444570559,1,1,13,-9,-2,-3,6,2
1615918444570559,-3,-1,-8,1,2,-1,2,-2
1615918444585543,-2,-2,-15,-3,-3,-5,-16,-3
1615918444585543,0,-3,-3,-7,-3,-1,7,-2
1615918444586544,-1,-2,-1,-21,-1,-3,-6,-3
1615918444586544,-3,-1,4,18,0,3,3,2
1615918444607461,2,2,13,25,2,3,-1,-1
1615918444607461,-4,-6,-27,-18,-1,-4,3,-1
1615918444609455,2,1,-1,10,1,0,1,-2
1615918444609455,-4,-3,-4,-22,-4,-2,-6,-2
1615918444621448,-1,0,-6,-1,0,-4,-3,1
1615918444621448,-1,-4,2,19,1,1,-1,-2
1615918444630089,-2,-3,1,1,0,1,1,1
1615918444630089,3,3,13,-6,0,3,-2,-1
1615918444645078,-1,-4,-22,-53,-3,-5,-3,-2
1615918444645078,-1,0,24,50,0,0,-1,0
1615918444647070,-3,1,1,-9,-2,0,-1,-2
1615918444647070,-2,-3,-35,0,-4,-5,0,-5
1615918444667990,-1,-2,6,-13,-3,-1,1,0
1615918444667990,0,1,12,-25,-1,0,-7,-2
1615918444668987,0,2,9,28,1,4,-1,1
1615918444668987,-1,-2,10,-8,0,-5,0,0
1615918444680955,-2,-2,-10,9,-6,-7,0,-3
1615918444680955,-1,1,-2,-9,2,-1,3,-1
1615918444705889,-3,-5,-2,-3,-2,-2,-3,-3
1615918444705889,1,4,2,21,1,2,0,0
1615918444706887,1,1,25,19,3,-1,3,1
1615918444706887,-2,-4,-19,-27,-4,-2,0,-3
1615918444708881,2,2,15,14,2,-1,0,0
1615918444708881,-2,0,-5,0,0,1,-3,0
1615918444727856,-2,-2,-23,-11,-1,1,-2,0
1615918444727856,0,5,33,9,2,2,10,0
1615918444729824,-2,-2,-7,4,-3,-1,-16,-4
1615918444729824,0,-6,-13,2,-1,-5,-6,-2
1615918444741818,-2,0,12,-7,0,2,0,-2
1615918444741818,-3,-7,-18,-16,0,6,4,0
1615918444750769,0,5,15,7,-4,-7,8,1
1615918444750769,-1,-4,13,-8,-5,-2,-7,-3
1615918444765752,2,4,24,54,2,1,-5,-2
1615918444765752,-1,-3,-21,-10,-2,2,6,1
1615918444766726,-2,-3,11,-24,1,1,0,-2
1615918444766726,-3,-2,-8,7,1,-2,0,-1
1615918444787693,-2,-3,-19,-19,1,2,5,-2
1615918444787693,2,2,10,31,-1,0,-4,1
1615918444803627,-1,-4,-20,-12,1,1,-2,-3
1615918444803627,-3,1,16,-11,-1,0,5,0
1615918444804625,-2,-5,-12,-19,-2,1,-14,0
1615918444804625,-2,1,5,8,2,0,0,-1
1615918444810609,2,1,-10,5,-2,-1,-1,1
1615918444810609,0,-7,-31,-6,-1,-4,1,-2
1615918444825569,-2,3,15,-2,-1,-2,2,-2
1615918444825569,-1,0,-3,-11,-1,-2,-2,-4
1615918444826590,-3,-5,-10,3,3,2,3,2
1615918444826590,0,0,7,-11,-4,-2,0,-1
1615918444847510,-1,-1,-4,-17,-2,-1,3,-3
1615918444847510,-1,-1,6,32,2,-2,-6,-1
1615918444849505,-1,1,2,-5,-5,-4,1,-2
1615918444849505,-1,2,3,-20,2,0,-1,0
1615918444861472,1,2,17,45,2,-2,-2,-1
1615918444861472,-2,-1,-1,-15,-5,0,-2,-1
1615918444870449,-1,-7,-27,-24,-2,0,4,-2
1615918444870449,-1,0,7,9,2,4,4,1
1615918444885432,-3,-1,-24,-6,-2,-2,-11,-1
1615918444885432,-1,-2,5,-3,-1,-3,2,1
1615918444887404,-1,0,-9,-5,-1,-2,-2,-2
1615918444887404,-1,1,2,6,-2,1,2,0
1615918444908348,-1,-1,-5,-16,-4,-3,3,2
1615918444908348,0,2,8,14,-2,-4,-5,-2
1615918444909345,-5,-5,-25,-29,-4,-4,-3,-5
1615918444909345,1,2,32,6,-2,-6,-5,0
1615918444921339,0,-2,1,21,3,4,2,-1
1615918444921339,-1,-1,-8,-11,-3,-3,3,1
1615918444930289,-3,-5,-12,-9,-2,0,0,0
1615918444930289,0,1,9,2,3,0,-6,-1
1615918444945276,0,-1,-6,0,0,-1,5,-1
1615918444945276,-1,-2,-8,-9,-2,-1,0,0
1615918444947244,1,2,6,10,-2,0,4,0
1615918444947244,-3,-3,-2,11,3,0,-13,-3
1615918444968211,-1,-2,-3,-31,0,1,6,1
1615918444968211,1,0,20,13,-3,1,-2,0
1615918444969185,2,7,34,35,2,-1,2,1
1615918444969185,-3,-4,-20,7,0,1,1,-2
1615918444990129,-2,-8,-18,-31,-2,-2,-3,-3
1615918444990129,1,3,-1,-2,0,-2,-3,-1
1615918444992123,-1,0,2,14,4,-2,-7,-1
1615918444992123,0,-1,-17,-16,-3,-3,4,1
1615918445005089,-1,0,26,29,-2,0,7,3
1615918445005089,-4,-3,-2,0,1,-4,-18,-6
1615918445007084,-2,-5,-21,-6,-1,1,-1,-4
1615918445007084,2,5,14,-21,-4,-2,1,1
1615918445028053,0,-1,-2,31,-1,0,1,0
1615918445028053,-2,-2,-11,-22,2,-2,3,-3
1615918445029049,1,3,10,8,-6,-3,-4,0
1615918445029049,-1,-2,3,-6,-4,-5,-6,0
1615918445057971,-2,-3,-10,-9,2,2,0,0
1615918445057971,-1,-2,-16,-18,-2,3,5,2
1615918445059943,-2,-1,8,1,-3,-3,-6,-1
1615918445059943,-1,-4,-12,15,1,3,4,-2
1615918445065926,2,4,-1,-8,-3,-2,-2,-1
1615918445065926,-1,-3,-5,-21,-3,-1,-1,-2
1615918445067921,0,1,2,26,3,1,5,0
1615918445067921,-2,-2,-17,-24,-4,-3,-1,-3
1615918445087891,-1,-1,8,41,-2,-4,1,0
1615918445087891,-2,-5,-18,10,-1,-2,-13,-3
1615918445089863,-2,-3,-11,-23,-3,-3,2,-2
1615918445089863,0,0,-8,-2,1,-1,1,1
1615918445111804,-2,1,4,-12,-1,0,-4,0
1615918445111804,-2,-4,-2,-3,-2,0,4,-3
1615918445116790,1,-2,14,-5,0,0,-3,0
1615918445116790,0,6,27,25,1,2,1,2
1615918445124769,-2,-5,-16,-29,-1,0,1,-4
1615918445124769,-1,-2,-2,9,0,-2,-1,0
1615918445131774,1,2,1,-7,2,3,-1,1
1615918445131774,1,-3,-3,7,0,3,7,-1
1615918445147734,-2,-3,-13,-13,-2,0,1,-4
1615918445147734,1,3,22,4,0,3,-9,-2
1615918445149702,-1,-1,10,-15,-2,-4,-2,1
1615918445149702,-3,-4,-17,-6,-1,-5,-3,-3
1615918445169888,1,2,-1,12,3,0,1,2
1615918445169888,0,2,8,-7,-1,-1,3,1
1615918445171883,-2,0,16,-1,-3,-3,1,-2
1615918445171883,0,-1,-8,-5,1,4,-2,-1
1615918445184872,-1,-4,-5,-15,-1,-3,-3,-2
1615918445184872,0,2,23,8,-2,-2,2,1
1615918445191829,0,-3,-11,6,-1,-2,-3,-1
1615918445191829,-5,-4,6,-7,-2,1,2,-4
1615918445215656,0,3,26,16,2,2,-6,-2
1615918445215656,1,-2,-28,-7,-4,-9,2,1
1615918445216654,-2,-2,-12,1,2,0,2,0
1615918445216654,-1,-3,-6,-9,-3,-2,-3,-1
1615918445230617,-3,-5,-18,-1,-2,-6,-8,-3
1615918445230617,-1,-1,5,21,2,3,5,0
1615918445231614,1,1,-21,-2,0,1,-1,1
1615918445231614,-3,-5,-5,-17,-2,-4,5,-3
1615918445244604,-1,1,17,12,-1,2,-15,-2
1615918445244604,0,7,12,6,3,3,3,1
1615918445251561,-3,-3,-10,-17,-6,-2,-1,-3
1615918445251561,0,3,-4,16,3,-2,-1,0
1615918445267517,-1,-3,-16,-35,-1,3,5,-1
1615918445267517,-2,-2,-5,2,3,0,-1,0
1615918445269513,0,-1,8,4,-1,1,-1,-2
1615918445269513,0,-2,-33,-37,-1,3,-1,-3
1615918445290456,2,5,36,24,-1,-2,0,2
1615918445290456,-3,-2,-1,3,-2,-5,-3,-2
1615918445292460,-2,-3,-12,5,2,0,4,-1
1615918445292460,1,2,11,9,-1,-3,-9,-2
1615918445304419,0,-2,-5,-5,-3,0,5,1
1615918445304419,-2,-2,-7,-9,0,2,1,-1
1615918445311400,-1,-1,3,-21,-6,-8,-3,-3
1615918445311400,1,1,9,47,0,3,1,1
1615918445335336,-1,0,17,-2,0,-8,-4,-3
1615918445335336,-1,-1,-6,-13,0,2,0,-1
1615918445337331,-1,-1,-23,25,0,1,5,1
1615918445337331,-1,3,22,-11,-2,-5,-14,0
1615918445358275,-2,-3,-6,0,0,-1,0,-3
1615918445358275,-1,-7,-37,-5,-2,0,2,-1
1615918445359272,0,2,11,-10,-2,-1,-3,1
1615918445359272,-3,-5,-4,7,1,-2,0,-2
1615918445364259,-1,1,-4,16,-5,-4,-3,1
1615918445364259,0,-3,-7,-25,-2,0,0,1
1615918445379219,-2,-1,9,-3,1,-1,-4,-4
1615918445379219,1,-1,-8,2,0,2,7,0
1615918445388195,-2,-3,-17,-17,-3,0,-6,-1
1615918445388195,-1,-2,-2,-3,1,0,2,-2
1615918445390190,1,4,23,8,1,-1,-2,1
1615918445390190,-2,-5,-19,-17,-4,-4,-3,-2
1615918445410136,-1,0,-5,-10,4,8,7,3
1615918445410136,-1,3,-13,-4,1,-3,-1,0
1615918445412131,-3,-1,1,19,-4,-4,-3,0
1615918445412131,0,0,15,-7,-2,-1,2,2
1615918445425121,0,-4,-5,24,2,-4,0,-2
1615918445425121,0,1,17,6,2,5,-4,-2
1615918445431080,-3,-8,-17,-22,0,-1,-2,-2
1615918445431080,0,4,6,-2,-1,-1,7,1
1615918445448035,-1,-2,1,5,-1,-1,3,-1
1615918445448035,-2,-2,-7,3,-3,-6,-19,-4
1615918445449033,0,-2,-11,7,1,3,1,0
1615918445449033,0,-3,16,0,-4,-3,-1,-2
1615918445469976,-1,1,6,-10,0,1,2,1
1615918445469976,-2,-3,19,7,-4,-4,1,-3
1615918445471972,-2,1,-9,12,0,2,1,-2
1615918445471972,0,0,-4,2,2,-2,-2,0
1615918445483939,1,2,5,-13,-3,-1,-2,0
1615918445483939,-5,-5,4,-17,-3,-3,0,-2
1615918445492915,-2,0,16,27,-3,-12,-4,-3
1615918445492915,-2,-1,-2,6,0,3,3,1
1615918445507875,-1,-4,-17,-15,-1,-1,-4,-1
1615918445507875,-1,-1,-1,-1,-1,0,4,1
1615918445509871,-1,0,23,4,-4,-1,-1,-3
1615918445509871,-2,-2,-24,-17,-2,-3,-4,-1
1615918445537819,-2,-1,7,8,2,-2,1,-2
1615918445537819,-1,1,9,5,-5,-5,2,-2
1615918445539790,-3,-4,-16,-24,1,1,-12,0
1615918445539790,-2,0,-2,11,0,3,2,-1
1615918445543779,-1,-4,3,4,1,0,2,-2
1615918445543779,1,-2,-18,-15,-1,-1,4,2
1615918445552755,1,4,12,6,2,2,4,2
1615918445552755,-1,-1,18,-13,-2,-2,-4,-3
1615918445567741,-1,-2,-26,-4,-2,-2,-1,-2
1615918445567741,0,1,8,11,0,2,0,0
1615918445569710,0,-2,-11,-14,-1,1,-1,-2
1615918445569710,-3,-3,-10,-24,-2,-1,-2,-3
1615918445590654,1,6,42,47,-1,1,-1,-1
1615918445590654,-1,-1,1,-4,-2,-4,-3,-1
1615918445591651,0,0,-7,3,1,-1,-4,-1
1615918445591651,0,-1,-7,-26,-2,5,2,0
1615918445612620,0,2,2,10,-3,1,-2,-1
1615918445612620,0,1,2,-10,-2,-3,1,-1
1615918445614590,-3,-5,-12,-10,-5,-4,2,0
1615918445614590,1,4,37,49,6,2,5,2
1615918445627579,-4,-4,-16,-32,-3,-7,-19,-4
1615918445627579,0,0,-9,19,1,0,1,0
1615918445629550,-1,-1,13,-18,-1,3,3,-1
1615918445629550,0,-1,-16,20,-2,-3,8,-1
1615918445650519,0,1,-11,-8,0,1,-6,0
1615918445650519,-1,3,20,-12,1,2,1,-1
1615918445652489,5,6,-3,48,1,1,-2,3
1615918445652489,-3,-3,1,1,-3,0,-6,-3
1615918445664457,-1,0,-6,-15,1,-1,7,1
1615918445664457,-2,-4,-6,-6,-3,0,-2,0
1615918445673434,-2,-1,13,-7,-3,-5,0,-1
1615918445673434,-1,-2,-4,-3,-3,-3,-4,0
1615918445687420,-1,-2,-6,16,0,3,7,1
1615918445687420,-1,-3,-23,-19,2,5,-11,-2
1615918445690388,-3,-3,-4,-11,1,-3,3,-4
1615918445690388,1,2,11,8,-3,-2,-2,0
1615918445710334,-2,-6,-21,-31,-2,-2,-2,-3
1615918445710334,-1,0,9,16,1,0,6,-1
1615918445712353,2,0,12,18,1,3,3,0
1615918445712353,-1,-3,-25,-22,-3,-5,-10,-2
1615918445724297,-1,1,9,8,1,1,8,0
1615918445724297,0,2,12,17,-3,-2,-4,-3
1615918445733273,-4,-3,-17,-30,-4,0,4,0
1615918445733273,-1,1,13,-6,3,-1,-10,0
1615918445748232,-1,0,19,29,1,0,0,-1
1615918445748232,0,1,0,3,0,1,3,2
1615918445749231,-2,-1,4,-9,2,2,-4,-2
1615918445749231,-3,-4,-9,-19,-5,-6,0,-4
1615918445770198,-1,-5,-16,-29,-2,-1,4,-1
1615918445770198,0,1,29,35,-1,-1,-3,0
1615918445772169,-2,-1,9,-5,-1,-4,-5,-4
1615918445772169,-1,-3,-16,-1,-1,2,4,-1
1615918445793137,-2,-3,-14,-28,-3,-1,-4,-3
1615918445793137,-2,-2,0,2,-2,-5,5,-2
1615918445794136,-1,-2,-15,-1,-1,0,-2,0
1615918445794136,-1,1,15,15,2,-2,-5,0
1615918445815078,-1,-1,5,-12,-4,-2,1,-1
1615918445815078,-3,-3,-18,-36,4,1,-1,-2
1615918445817049,0,5,29,44,-1,-1,-5,-1
1615918445817049,-3,-4,-17,-23,-1,0,0,-1
1615918445830014,1,4,18,17,0,1,1,0
1615918445830014,-3,-5,-37,-6,-1,3,-4,-4
1615918445832008,2,0,-7,-11,-3,0,-2,1
1615918445832008,-5,-5,-10,-17,-1,-1,10,-3
1615918445844001,-2,-1,-1,13,-2,-3,-8,0
1615918445844001,0,0,-17,3,-3,0,-5,-1
1615918445852953,-2,-2,5,-22,0,-1,0,1
1615918445852953,2,0,-3,15,1,3,2,-1
1615918445866942,-1,-2,-6,-2,-4,-4,1,-1
1615918445866942,1,0,0,-22,1,-1,2,0
1615918445867913,-2,-5,-3,26,2,3,-1,-2
1615918445867913,1,4,33,3,1,0,-5,0
1615918445889855,-2,-1,-6,-14,-1,-1,-2,-3
1615918445889855,0,1,20,13,-3,-5,-4,-2
1615918445890852,-2,-1,-17,-1,0,-1,4,0
1615918445890852,-3,-5,-20,8,-2,-2,-4,-2
1615918445911819,0,0,1,-14,-3,-1,-2,-2
1615918445911819,-1,-1,-13,24,-1,-1,3,0
1615918445912793,-4,-2,-16,-24,-5,-3,-8,-2
1615918445912793,2,0,4,-1,1,1,1,1
1615918445935755,0,0,1,-6,-1,-4,-2,-2
1615918445935755,-1,-3,7,7,-3,2,1,0
1615918445935755,3,0,-5,3,0,3,8,1
1615918445935755,0,3,9,5,0,-2,-11,1
1615918445949696,-2,-3,-17,-18,0,-4,1,-1
1615918445949696,-1,-5,2,-12,-2,-2,1,1
1615918445950692,-2,1,23,35,2,0,0,0
1615918445950692,2,0,-3,-15,-3,-1,2,0
1615918445971635,-1,-1,-14,40,-1,1,-3,0
1615918445971635,-2,-1,-21,-29,-1,-4,-3,-1
1615918445972634,-3,-4,-2,-13,-1,-3,-5,-2
1615918445972634,1,-4,-14,0,-1,2,-1,-2
1615918445986619,1,1,-2,-9,0,2,2,1
1615918445986619,0,2,-5,14,-1,0,2,-1
1615918445994599,-2,-1,9,-18,-2,-1,-4,-2
1615918445994599,0,2,0,11,-5,2,7,3
1615918446009534,0,-4,4,-9,-1,2,-4,-3
1615918446009534,-1,1,9,4,1,-4,-6,-2
1615918446010532,-1,-6,-34,-12,0,0,0,-1
1615918446010532,-2,2,20,8,-1,-2,-3,0
1615918446032496,1,0,-2,-24,-1,0,6,1
1615918446032496,-1,0,6,9,-3,-8,5,-1
1615918446033471,1,4,26,16,-3,-1,-3,0
1615918446033471,-2,-3,-7,0,1,-5,1,-2
1615918446048430,-2,-3,-4,-1,0,-3,-2,-2
1615918446048430,-2,-4,-9,-18,-3,2,-2,-2
1615918446049427,0,-3,-11,4,-2,-1,2,-1
1615918446049427,0,3,20,2,0,0,-3,-1
1615918446069399,-3,-4,-13,2,-3,-5,-3,-2
1615918446069399,1,1,-1,-32,-3,-3,2,1
1615918446070372,-2,-2,8,28,1,-3,4,-1
1615918446070372,1,0,-1,5,1,3,-9,0
1615918446092338,-4,-3,-10,-28,-3,-7,-3,-2
1615918446092338,1,3,13,34,2,2,4,0
1615918446093311,-3,-4,-17,-45,-4,-1,-4,-2
1615918446093311,1,1,12,9,1,-1,3,0
1615918446107282,0,-1,11,11,0,-2,-2,-1
1615918446107282,-1,0,18,5,-1,0,-5,-2
1615918446108271,-1,-1,-10,-35,-2,1,6,-1
1615918446108271,-4,-2,11,33,-3,-5,-10,-1
1615918446129244,1,7,38,14,-3,2,2,0
1615918446129244,-2,-4,-4,3,-1,1,3,0
1615918446130212,1,2,10,-4,-1,-3,-3,0
1615918446130212,-2,-2,-12,-13,-1,-3,-5,-4
1615918446152154,-2,0,-1,7,4,1,2,0
1615918446152154,1,1,-13,13,1,0,-4,2
1615918446153151,-2,-1,7,-9,1,3,3,1
1615918446153151,0,-3,-8,6,-3,-4,6,-2
1615918446168110,-3,-5,-15,-12,-2,-2,-6,-2
1615918446168110,1,2,19,42,3,0,0,-1
1615918446175091,0,0,-8,-2,1,-3,1,-3
1615918446175091,-1,-1,-11,-18,-7,-4,-5,-1
1615918446190052,0,-2,-8,16,1,4,-1,0
1615918446190052,-2,-1,2,-12,-3,-1,-2,-1
1615918446191050,1,3,9,9,0,-4,-7,-2
1615918446191050,-2,-2,-7,0,1,2,6,0
1615918446211925,0,-1,-13,-34,-4,-2,0,0
1615918446211925,1,0,11,14,1,0,-10,-2
1615918446212922,0,2,9,39,-1,-1,-1,0
1615918446212922,-2,-8,-37,-36,-2,1,1,-1
1615918446227882,-1,2,16,32,2,0,0,-3
1615918446227882,-1,-4,-2,-16,-2,1,2,-2
1615918446234889,-2,-5,-18,-13,-2,0,-3,-2
1615918446234889,-2,0,7,9,0,-2,0,-1
1615918446249823,1,3,10,10,-2,0,3,2
1615918446249823,-1,-3,-3,-13,-2,0,0,0
1615918446250821,-1,-6,-39,-6,2,-1,-1,-2
1615918446250821,-4,-2,4,0,1,1,1,-1
1615918446271766,2,4,-4,-3,-1,0,0,1
1615918446271766,-1,-1,6,0,-2,-6,-4,-1
1615918446272763,-1,-2,-6,-29,0,-2,0,-1
1615918446272763,3,5,31,54,4,4,-1,-1
1615918446295701,-2,-2,3,2,-2,-1,-5,-3
1615918446295701,-4,-10,-39,-55,-3,0,0,-4
1615918446295701,1,9,41,28,0,2,4,2
1615918446295701,1,-3,-13,-19,-2,0,6,1
1615918446309663,-2,-1,14,9,-1,-1,-12,-3
1615918446309663,-3,-4,-18,-16,-3,-2,0,-2
1615918446310661,-2,0,5,14,1,2,-3,-2
1615918446310661,-2,-3,-9,-26,-7,-7,-4,-2
1615918446332629,2,-1,-1,9,1,1,7,2
1615918446332629,-1,2,2,2,1,4,7,1
1615918446332629,0,-1,-4,12,-1,-8,-17,-3
1615918446332629,-2,-4,-17,-26,0,0,2,-1
1615918446347592,-1,-3,4,-1,-2,-2,5,0
1615918446347592,0,0,0,0,-1,-2,-19,-1
1615918446354568,-2,-4,-10,1,-2,-1,7,-1
1615918446354568,1,5,15,14,2,1,-4,-1
1615918446369530,0,-5,-25,-10,-3,-5,-2,1
1615918446369530,1,3,9,-2,1,5,5,0
1615918446370502,-1,1,8,-5,-1,0,0,0
1615918446370502,-3,-5,-6,31,-4,-2,-6,-3
1615918446392468,0,5,14,-6,-1,0,5,0
1615918446392468,-1,-2,5,5,0,2,4,-1
1615918446393440,3,4,15,0,-1,3,-3,0
1615918446393440,-3,-1,5,-11,-1,-5,-1,-3
1615918446406406,-1,-1,-13,10,3,-1,-2,-2
1615918446406406,-5,-2,-7,-7,0,-3,-2,-3
1615918446414384,0,1,6,-24,-4,0,15,0
1615918446414384,0,-3,-12,-11,0,3,-8,0
1615918446429344,-3,1,17,2,-2,-4,-6,-5
1615918446429344,0,1,9,13,2,0,1,2
1615918446430341,-1,-4,-18,13,-2,0,-1,2
1615918446430341,0,-1,-1,-14,-2,-3,5,0
1615918446468240,0,1,-11,-23,-2,1,-1,0
1615918446468240,-1,2,15,11,-3,-5,-5,-2
1615918446469238,-3,-3,-6,-11,-1,0,-3,-3
1615918446469238,-3,-4,-5,-2,2,-2,-2,-4
1615918446471232,3,6,24,26,0,-3,-1,1
1615918446471232,4,-1,4,13,0,-2,3,0
1615918446474224,-5,-7,-32,-13,-1,1,-1,-3
1615918446474224,0,2,30,2,-2,-2,-2,-1
1615918446490181,-2,-5,-2,-4,0,3,-1,0
1615918446490181,-2,2,11,6,0,1,3,-1
1615918446490181,0,-3,-13,7,-4,-6,-18,-3
1615918446490181,2,4,9,-11,2,3,4,3
1615918446512147,-2,-3,-5,11,1,3,4,1
1615918446512147,-1,-1,-10,-22,2,-4,4,-3
1615918446513121,-1,3,5,10,-4,-2,-8,-2
1615918446513121,-3,-5,-11,-14,-1,-4,0,-5
1615918446535085,0,6,30,32,1,3,-2,1
1615918446535085,-1,-4,-23,-19,-4,-5,-4,-1
1615918446536060,-2,-6,-11,-43,-2,5,5,-2
1615918446536060,3,6,35,54,3,1,0,1
1615918446550049,1,0,4,26,-1,-1,-1,-1
1615918446550049,-3,-5,-14,-10,-5,-2,-2,-3
1615918446550049,-1,2,12,-16,-3,-5,4,0
1615918446550049,-2,2,5,24,0,3,-1,-2
1615918446571964,-5,-6,-31,-41,-4,-7,-3,-4
1615918446571964,2,1,3,11,3,1,3,1
1615918446572961,1,4,35,9,-1,0,4,1
1615918446572961,-1,-4,-26,-3,-2,-4,-6,-1
1615918446586947,-1,-1,-12,-7,0,1,0,-1
1615918446586947,-2,-4,-13,5,0,-2,-3,-1
1615918446594901,0,0,-7,-7,-1,-6,4,1
1615918446594901,0,-1,-7,-12,-3,2,-1,2
1615918446609861,-2,-3,-6,-22,-3,0,2,-4
1615918446609861,-1,0,8,4,-1,-4,-12,-3
1615918446610859,-4,-6,-22,3,1,3,-2,0
1615918446610859,1,5,19,-3,-1,0,6,1
1615918446631802,-2,-3,2,9,-4,-6,-3,-1
1615918446631802,0,-2,-10,-14,-1,2,2,0
1615918446632800,2,3,26,23,3,2,5,0
1615918446632800,0,-6,-36,-37,-1,-6,-9,-3
1615918446655739,2,1,24,30,1,3,5,0
1615918446655739,-1,-1,1,10,-3,2,2,0
1615918446655739,-2,0,-6,-8,-4,-3,-4,-1
1615918446655739,-3,-4,-21,-15,0,2,11,1
1615918446669726,-2,-1,3,-1,-1,-3,-7,-2
1615918446669726,1,0,-10,10,1,-1,-2,0
1615918446670699,2,2,16,22,0,0,1,0
1615918446670699,-1,-3,-16,-18,-3,-1,1,-2
1615918446692641,-1,-3,-12,2,-2,1,-4,-1
1615918446692641,-1,0,4,-10,0,-3,-3,-2
1615918446692641,-4,-7,-21,-40,0,-3,5,-4
1615918446692641,2,5,31,42,3,1,-5,1
1615918446722561,-1,1,-2,-8,2,1,-4,-2
1615918446722561,0,0,2,-9,-1,0,2,0
1615918446723559,1,1,9,0,-5,-2,-2,1
1615918446723559,-3,-4,-12,-6,0,0,0,-2
1615918446729541,1,1,-20,-33,-1,2,6,0
1615918446729541,-2,-3,9,20,-7,-6,-2,-3
1615918446730539,-3,0,-9,7,0,0,-7,-3
1615918446730539,-1,-3,-5,-14,-1,-7,2,-3
1615918446752480,-2,-5,-15,-13,0,-1,-6,-2
1615918446752480,1,-2,-10,-38,-1,1,3,1
1615918446753478,1,4,31,72,-1,-4,-3,0
1615918446753478,-1,1,-2,-6,-3,3,-1,-1
1615918446775444,-3,-5,-8,-30,-6,-5,3,0
1615918446775444,0,-2,2,17,0,1,1,-1
1615918446782400,-3,-3,-18,-22,2,-2,-14,-4
1615918446782400,-1,-2,2,-7,1,2,5,-1
1615918446789382,1,1,3,44,3,1,-5,-1
1615918446789382,-1,1,24,13,1,-1,2,-2
1615918446790380,0,-1,-11,-8,-1,0,3,0
1615918446790380,-3,-4,-11,1,-4,0,-6,-2
1615918446812320,0,2,21,0,1,-1,2,-2
1615918446812320,-1,4,5,17,0,3,-2,0
1615918446813318,2,-1,7,1,-2,2,-3,1
1615918446813318,1,0,-8,-7,1,-4,-3,0
1615918446835259,-1,0,-1,-7,3,2,5,1
1615918446835259,-1,-3,-9,-20,-5,3,-3,-2
1615918446836257,0,-1,8,6,-2,1,3,-2
1615918446836257,0,2,9,3,-2,-1,1,-1
1615918446849221,-1,-1,1,-3,-4,-3,-3,-1
1615918446849221,-1,-5,-14,8,1,-2,-2,0
1615918446850986,-2,0,9,-10,4,2,10,0
1615918446850986,-1,3,22,28,3,-2,-18,-3
1615918446871932,-4,-6,-43,-36,-3,-5,-3,-1
1615918446871932,-1,3,12,25,-5,-4,-1,0
1615918446879934,-3,-7,-32,-26,-1,0,2,-1
1615918446879934,0,-3,-1,-14,1,2,4,1
1615918446902876,-2,0,2,28,-1,-4,-4,-1
1615918446902876,-3,-5,-24,-16,1,-2,-3,-4
1615918446903846,-1,-2,-24,-4,-1,1,3,-3
1615918446903846,-2,0,11,-13,-2,-4,-11,-3
1615918446909854,1,1,1,-12,-4,-2,-2,-1
1615918446909854,0,-2,-4,-7,0,0,3,1
1615918446916836,-2,-5,-8,0,-2,-5,-7,0
1615918446916836,0,6,30,48,2,3,6,0
1615918446931797,1,-1,-4,-17,1,-1,3,-1
1615918446931797,1,2,19,7,0,-2,-1,1
1615918446932769,0,-1,-6,-15,-2,2,5,0
1615918446932769,-6,-7,-22,-12,-3,-2,-9,-5
1615918446954711,0,-3,16,-18,-1,2,-1,-1
1615918446954711,2,5,22,17,5,1,2,1
1615918446955709,-2,-4,-16,-21,-2,-4,-4,-3
1615918446955709,-1,-4,-17,-21,-3,-3,4,-1
1615918446969694,1,1,29,19,0,3,2,0
1615918446969694,2,4,4,15,0,-1,-6,1
1615918446970668,-2,-3,6,14,0,-1,-2,-1
1615918446970668,3,4,8,-1,-3,-1,5,2
1615918447000614,-3,0,-24,-15,-2,-6,-2,-1
1615918447000614,-5,-4,-9,-7,-3,-2,0,-2
1615918447001585,-1,1,1,7,2,1,3,0
1615918447001585,-1,1,-4,8,-3,-6,-6,0
1615918447022530,-2,-3,-13,-24,-1,-4,-16,-4
1615918447022530,-1,-2,-5,4,-3,-1,1,-2
1615918447023527,0,0,12,4,-2,-1,-6,0
1615918447023527,-2,-4,-6,4,1,0,6,-1
1615918447029535,1,1,2,2,3,2,4,0
1615918447029535,-1,-1,-3,3,-2,-2,-7,0
1615918447030508,0,1,14,16,0,-1,0,0
1615918447030508,-3,-5,-5,2,-2,-2,0,-2
1615918447052473,-1,-3,3,16,0,2,1,0
1615918447052473,1,-4,-18,-39,-4,1,1,0
1615918447053470,0,3,2,18,2,-6,-4,0
1615918447053470,-1,-2,2,-6,0,0,4,1
1615918447074391,-3,-5,-17,-2,-4,-3,-1,-3
1615918447074391,-1,-1,-8,-3,-1,4,7,1
1615918447075387,-1,1,24,5,-4,-4,-16,-2
1615918447075387,2,7,7,22,0,1,5,0
1615918447089351,2,1,-4,2,-2,-4,-6,1
1615918447089351,-2,2,23,3,1,-2,2,-2
1615918447090348,-1,-1,-19,-24,1,0,1,-1
1615918447090348,1,2,7,13,-1,0,-3,-2
1615918447112289,0,-3,-15,-12,0,0,9,0
1615918447112289,-2,-3,-8,2,-1,-5,-3,-2
1615918447113287,0,-3,-22,-5,0,4,-4,1
1615918447113287,-2,-3,-23,-15,1,-1,0,-1
1615918447134230,-3,-4,-29,-32,-2,-2,-2,-3
1615918447134230,2,3,30,-9,-1,3,0,3
1615918447135228,-3,-3,-10,-22,-6,-2,10,0
1615918447135228,-1,-5,0,25,4,-2,-8,-2
1615918447149190,0,5,26,18,-4,-5,-3,-1
1615918447149190,1,0,-17,-23,-1,1,-5,-1
1615918447150212,-2,2,4,-5,-2,1,5,0
1615918447150212,-3,-2,-1,-12,-1,0,1,-2
1615918447180133,-1,2,12,14,0,3,-3,1
1615918447180133,-3,-4,-9,5,0,-2,8,-2
1615918447181106,-1,1,2,13,0,-3,-12,-2
1615918447181106,-1,-2,-11,-35,-2,-2,0,-1
1615918447195068,-2,1,7,36,2,3,0,0
1615918447195068,-2,-1,-9,-13,2,1,1,-3
1615918447195068,1,-1,1,-4,-3,-3,2,-2
1615918447195068,-3,0,-10,-6,-5,0,-2,-1
1615918447210052,-1,-1,9,1,1,-1,9,2
1615918447210052,-1,1,-6,2,-1,2,-20,-3
1615918447211051,1,-1,-8,-22,-3,-8,0,1
1615918447211051,-2,-1,30,15,-2,-4,-3,-2
1615918447231969,0,2,-14,-9,1,0,3,-1
1615918447231969,-1,0,-7,18,-1,0,0,0
1615918447232966,-2,-5,-7,-13,0,4,-2,-2
1615918447232966,2,4,27,1,1,0,1,1
1615918447254907,-4,-2,1,19,0,1,1,-1
1615918447254907,-1,-3,3,-7,-4,-6,-1,1
1615918447255906,-1,0,6,26,2,0,-2,0
1615918447255906,-1,-3,-18,-18,-1,-1,6,0
1615918447277871,1,-1,12,3,0,-1,-9,-1
1615918447277871,-2,-1,-4,-11,-3,-4,-2,-3
1615918447278844,-2,-3,4,2,-2,-2,6,-1
1615918447278844,1,0,3,2,-2,1,-8,-1
1615918447300786,-2,-2,-11,-22,-2,-1,-1,-1
1615918447300786,-1,-6,1,4,-2,-3,2,-5
1615918447300786,0,2,0,-4,-6,-3,-2,0
1615918447300786,0,1,-3,-2,2,-1,2,1
1615918447322726,-1,1,22,4,2,1,0,0
1615918447322726,-1,-4,-11,14,0,-2,-4,-1
1615918447323724,1,2,6,3,1,-1,0,-1
1615918447323724,-2,-4,-15,-15,0,2,0,-3
1615918447329733,0,3,0,4,-1,-2,-4,-2
1615918447329733,-3,-5,-8,-9,-3,4,0,-1
1615918447330732,-3,0,-1,-3,2,0,-2,-2
1615918447330732,1,3,7,4,0,3,7,-1
1615918447352646,-3,-6,-18,-19,-3,-4,-14,-3
1615918447352646,1,3,4,22,-1,-4,1,0
1615918447352646,0,0,27,36,-1,0,1,-3
1615918447352646,-3,0,-14,-28,-7,-3,0,1
1615918447374587,-1,-2,-10,2,3,6,7,0
1615918447374587,0,0,-2,-6,2,-3,-5,-2
1615918447375585,-1,-5,-12,14,-2,-2,-6,0
1615918447375585,1,2,9,-1,2,1,1,1
1615918447391543,-1,-2,-8,15,-4,-3,-1,-3
1615918447391543,-4,-3,0,-17,-4,-6,-5,-3
1615918447391543,0,-1,-13,0,3,5,5,1
1615918447391543,-2,-1,14,11,-3,-2,-6,-3
1615918447412486,-2,1,-2,-8,-2,-3,0,-2
1615918447412486,-2,1,26,16,2,-4,-2,2
1615918447413484,-1,-4,-13,-28,-6,-1,4,-4
1615918447413484,-3,-4,-28,-35,-3,-6,-16,-4
1615918447434428,1,3,38,47,3,3,3,1
1615918447434428,0,1,1,-12,-3,3,3,0
1615918447435425,-2,-1,-18,-15,-4,-6,2,-1
1615918447435425,0,-2,0,9,1,1,-2,-1
1615918447449388,-1,-3,-14,-33,-2,2,0,-1
1615918447449388,-2,-3,-23,-29,-2,-2,1,-3
1615918447457366,2,8,41,44,6,3,-7,1
1615918447457366,-3,-6,-30,-23,-4,0,4,-1
1615918447480329,2,-1,13,19,-4,-2,7,1
1615918447480329,-1,1,16,4,1,1,-12,-2
1615918447481302,-2,-3,-4,-28,-4,-2,-1,-2
1615918447481302,-4,-4,-6,4,-2,-2,1,0
1615918447494292,0,1,8,20,3,1,3,1
1615918447494292,-2,-6,-20,-12,-1,-5,0,-2
1615918447495279,-1,1,-6,-10,2,2,-3,-1
1615918447495279,1,2,-3,24,1,2,-1,1
1615918447509256,-5,-5,1,6,-2,-3,-7,-5
1615918447509256,3,5,10,-5,-4,-1,3,2
1615918447517234,-4,-10,-49,-25,-1,0,-4,-4
1615918447517234,1,3,25,10,-1,-2,2,0
1615918447532166,0,-1,-16,4,3,-1,-1,1
1615918447532166,0,-2,-14,3,1,5,15,1
1615918447533164,-2,-1,-2,-1,-3,-7,-19,-3
1615918447533164,-3,1,-14,-12,-2,-1,1,-1
1615918447555106,0,1,14,0,-3,-2,-5,-3
1615918447555106,1,-2,-8,-24,0,2,4,0
1615918447555106,1,6,20,15,4,1,5,2
1615918447555106,0,-3,3,7,0,2,-1,-1
1615918447578069,0,0,-2,-17,-3,-3,-2,1
1615918447578069,-1,-2,-16,-14,-1,-1,-2,-2
1615918447579042,-3,-2,17,4,-1,2,2,-2
1615918447579042,-2,-3,-6,6,1,-1,-4,-2
1615918447592032,1,-1,-8,-35,-3,-2,0,2
1615918447592032,-1,2,28,63,3,0,-4,-2
1615918447593004,2,-1,-3,-11,-1,1,2,0
1615918447593004,-3,-4,1,-15,0,1,9,-1
1615918447614970,0,4,2,-6,-1,-8,-17,-3
1615918447614970,-3,-1,14,-5,-4,-2,-2,-1
1615918447615968,-2,-3,-25,-4,-1,2,8,1
1615918447615968,2,-2,-6,-1,-2,0,1,0
1615918447628933,-1,-3,-17,-12,2,4,5,0
1615918447628933,0,-2,-19,-2,0,0,-5,0
1615918447636914,0,2,11,9,3,1,1,-1
1615918447636914,-2,-1,8,1,-2,-3,-5,-3
1615918447651846,-3,-2,-7,3,-2,2,0,-2
1615918447651846,2,3,16,-6,-1,-4,2,2
1615918447666830,-2,-3,6,13,-2,-1,-1,-2
1615918447666830,0,2,11,5,2,5,-2,-1
1615918447674810,-4,-7,-41,-14,-1,-3,-2,-6
1615918447674810,1,8,18,-11,2,0,1,-1
1615918447675782,1,-2,-8,-10,-3,0,-2,-1
1615918447675782,0,-1,-6,2,-3,-4,-2,0
1615918447689746,-1,-3,13,3,-2,-4,8,-1
1615918447689746,-2,-4,-10,-5,-3,-4,-15,-2
1615918447697724,0,0,8,22,-1,-1,-2,0
1615918447697724,1,-3,-15,-11,0,0,0,-1
1615918447711712,-2,1,5,8,1,1,4,-1
1615918447711712,-2,-5,-14,-22,-3,-2,-1,-3
1615918447712708,2,12,63,29,2,0,-2,3
1615918447712708,-1,-2,-13,-20,-1,-4,-1,1
1615918447734778,0,-2,3,6,0,1,-2,0
1615918447734778,-2,-2,-3,6,1,0,5,-1
1615918447735751,-3,-7,-27,-20,-1,-2,-14,-3
1615918447735751,0,0,11,-13,-4,-3,-1,-2
1615918447757718,0,-1,-3,17,-1,-1,-2,-2
1615918447757718,0,-2,-19,-11,-1,4,5,1
1615918447758690,1,4,20,14,0,0,2,0
1615918447758690,-2,-3,-6,-20,-3,-6,-1,-2
1615918447772653,0,1,28,47,-4,-7,-6,-1
1615918447772653,-1,3,2,2,-1,5,2,0
1615918447772653,-3,-3,-5,-14,-2,0,7,-3
1615918447772653,2,5,7,22,1,0,-7,0
1615918447794594,0,-3,-2,-24,3,4,3,0
1615918447794594,-2,-4,-10,21,3,0,1,-2
1615918447795592,1,0,11,-23,0,-2,-3,-1
1615918447795592,-3,-3,-5,28,0,3,6,-1
1615918447817532,1,6,14,-5,2,-1,-2,1
1615918447817532,-1,-4,-16,-13,-1,-2,-11,-1
1615918447818530,-2,-4,-16,-13,-6,-5,2,0
1615918447818530,-1,-1,-5,5,1,-1,3,1
1615918447832492,-4,-4,-10,-10,-1,-1,1,-6
1615918447832492,-3,-5,8,-3,-5,-8,-4,-2
1615918447833490,1,-3,-20,-10,-2,1,2,0
1615918447833490,-1,-3,4,2,-1,-1,-4,-1
1615918447854434,-1,1,-3,-9,-2,4,2,0
1615918447854434,1,-1,-11,6,1,-3,-6,1
1615918447855432,-1,-1,1,8,2,1,-1,-1
1615918447855432,-1,-2,0,-6,-2,-4,-1,-1
1615918447878370,-1,-4,-8,-12,-3,-3,-1,0
1615918447878370,-2,-3,-9,-10,0,4,3,-3
1615918447878370,-3,-5,-7,-3,-2,-4,-4,-3
1615918447878370,5,14,56,27,-2,6,6,4
1615918447892332,-2,-3,-5,-14,-4,-2,-16,-4
1615918447892332,-1,-3,-9,-10,-1,2,10,-1
1615918447899339,-2,-2,-10,15,-4,-9,-10,-1
1615918447899339,-6,-5,-10,6,0,-2,-2,-3
1615918447914298,1,-1,-5,-9,0,2,1,0
1615918447914298,0,2,-5,-6,-2,1,3,0
1615918447915281,0,-1,7,27,2,5,0,0
1615918447915281,-2,-3,-4,-7,-1,-5,-8,-3
1615918447938210,-1,0,-3,-17,-3,-2,-2,0
1615918447938210,-1,-5,-10,35,-1,-3,0,-1
1615918447939208,-3,-1,-14,-21,0,2,5,2
1615918447939208,1,5,26,24,3,1,-6,-1
1615918447952197,0,-1,2,-3,-1,-2,4,0
1615918447952197,-2,-1,4,6,0,0,2,-2
1615918447953170,-3,-4,-15,-17,-1,-4,-19,-4
1615918447953170,-1,2,-10,-6,0,2,7,0
1615918447975136,0,-3,2,6,1,0,2,0
1615918447975136,-1,3,2,-9,-2,-3,-2,-3
1615918447975136,0,-4,-15,-8,-4,-3,4,-4
1615918447975136,-1,-3,-14,3,0,0,-3,1
1615918447998050,0,2,2,26,1,-2,-1,0
1615918447998050,-2,-2,-26,-24,-2,-4,2,-3
1615918447999047,2,4,16,17,2,1,-6,1
1615918447999047,0,-1,-13,-30,-1,-3,-3,-2
1615918448013009,-3,-7,-11,12,-3,-6,2,-3
1615918448013009,4,7,29,10,-2,-3,-6,3
1615918448013009,-1,0,-8,-22,-1,1,8,-2
1615918448013009,-3,-5,0,14,1,-1,-12,-7
1615918448034976,-2,2,17,4,1,3,1,1
1615918448034976,0,0,12,5,-1,0,2,-1
1615918448035948,0,1,7,12,2,-4,2,1
1615918448035948,0,-4,-12,-23,-1,-1,6,-1
1615918448057890,-2,-2,-7,-6,-6,-4,-4,-3
1615918448057890,-4,-1,5,-1,2,0,-5,-2
1615918448058888,0,-2,3,12,0,1,4,-1
1615918448058888,-1,0,1,0,-2,-1,0,2
1615918448071854,1,0,-8,-7,-2,-2,-4,-2
1615918448071854,-3,-6,-6,-7,-1,-1,-1,-1
1615918448072850,2,3,3,-4,-1,-6,-4,-1
1615918448072850,0,-1,5,13,-3,-2,4,0
1615918448094792,1,4,21,-21,0,-2,-8,-3
1615918448094792,-1,0,2,-4,0,-1,-8,-1
1615918448095789,-2,1,21,46,-1,-1,0,0
1615918448095789,-3,-8,-22,-26,-3,-3,-1,-2
1615918448117730,0,-1,-22,-14,4,7,7,1
1615918448117730,1,1,7,5,-1,-2,0,0
1615918448118727,-2,-1,-15,-26,0,2,-3,-1
1615918448118727,-1,-2,-3,5,-2,-3,0,-1
1615918448132690,-2,-5,-24,-11,0,2,-1,0
1615918448132690,-3,-1,-7,17,2,2,-4,0
1615918448132690,3,5,17,-11,-1,3,4,2
1615918448132690,-2,-1,2,-15,-5,-3,-4,-2
1615918448154632,-1,-3,-8,9,-2,-3,6,1
1615918448154632,-2,-1,-13,0,-4,-5,2,-2
1615918448155630,-5,-4,5,-4,0,-1,-8,-3
1615918448155630,3,8,26,29,4,4,3,3
1615918448177570,-2,-1,0,-6,-1,-4,-3,-1
1615918448177570,0,-4,3,-16,-2,0,3,-4
1615918448178567,1,0,7,27,-1,-1,6,1
1615918448178567,-3,1,-2,-11,-3,-2,-8,-3
1615918448192530,-3,-3,-15,-7,-2,-2,-1,-2
1615918448192530,0,0,12,23,1,1,-1,-1
1615918448193527,-1,-2,-8,-31,-2,-1,1,1
1615918448193527,0,-6,-26,-5,0,4,-1,-2
1615918448214471,1,3,23,-1,1,2,6,0
1615918448214471,-1,0,6,7,-1,-5,-20,-2
1615918448215469,-2,-10,-34,-2,-2,2,3,-2
1615918448215469,1,3,4,-4,-1,-7,3,1
1615918448237410,-3,-3,-1,4,-3,-4,-2,-2
1615918448237410,1,-1,1,-17,-2,0,1,0
1615918448238408,0,-2,-16,3,-1,-2,-2,-2
1615918448238408,-2,-3,-18,-17,0,0,-5,-2
1615918448252394,0,3,14,25,-1,-1,-2,-1
1615918448252394,-2,-2,-6,-32,-3,-3,2,0
1615918448253392,0,0,15,29,-2,-3,-1,-3
1615918448253392,-1,1,-2,-9,-3,0,1,1
1615918448274311,-1,-1,12,19,-3,0,-2,-1
1615918448274311,-1,5,21,-3,1,1,1,0
1615918448275309,-3,-5,-14,-8,-1,0,-2,0
1615918448275309,0,-1,-7,5,-1,2,6,3
1615918448297275,0,1,-7,-7,3,2,8,0
1615918448297275,-2,-3,-1,4,1,-3,-5,-2
1615918448298248,-2,0,6,10,0,1,0,-1
1615918448298248,1,1,0,-2,-2,-2,-3,-3
1615918448314205,-1,-5,1,-20,0,-2,4,-2
1615918448314205,0,-6,-29,8,-1,1,1,-2
1615918448314205,1,6,27,-6,-3,1,-1,1
1615918448314205,-3,-4,-4,-11,3,0,2,-2
1615918448335149,-3,1,22,-4,2,-2,-7,-2
1615918448335149,-1,1,-3,7,-2,0,2,1
1615918448335149,1,-4,-14,-24,-1,-1,0,-1
1615918448335149,-4,-7,-16,2,3,-1,-3,-2
1615918448358087,1,2,12,1,-3,-3,-4,2
1615918448358087,-2,-3,5,15,0,-1,1,-2
1615918448365069,-2,-1,-9,-11,0,-4,-11,-5
1615918448365069,0,0,10,2,-2,2,3,-1
1615918448372050,0,-3,-29,-20,-1,2,-2,1
1615918448372050,1,7,51,22,1,-1,7,1
1615918448373048,1,1,0,-1,0,5,-3,1
1615918448373048,-2,-1,12,-7,-5,-13,-6,-3
1615918448394988,-2,-2,-15,-1,0,1,-2,-2
1615918448394988,0,2,-2,2,1,4,4,1
1615918448395986,-2,-5,-8,-9,-3,-3,3,-3
1615918448395986,2,5,16,-2,3,5,-1,1
1615918448416930,0,-1,5,37,2,-1,-3,-2
1615918448416930,-2,-5,-22,-29,-5,-5,4,-1
1615918448417927,-2,1,14,22,1,3,-11,-2
1615918448417927,-2,-5,-36,14,-1,-3,0,-2
1615918448432887,1,0,20,19,-3,-4,1,2
1615918448432887,-1,-9,-36,-48,-4,-2,-3,-3
1615918448439869,1,6,20,42,3,1,6,1
1615918448439869,-4,-4,9,-16,-3,-3,-4,-2
1615918448454829,-2,-4,-14,-22,-1,-1,-4,-1
1615918448454829,2,3,37,31,-2,-3,-4,-1
1615918448455827,-1,-7,-39,-45,2,-1,4,-4
1615918448455827,3,3,12,9,-6,-3,0,1
1615918448477767,-1,-3,-16,-4,-2,-4,-1,-3
1615918448477767,-1,2,3,15,1,0,-1,1
1615918448477767,-4,-5,-20,-35,-7,-2,-1,-1
1615918448477767,1,-1,1,-2,2,2,1,1
1615918448491730,1,2,0,-14,0,-2,3,-1
1615918448491730,-3,-4,-8,-2,0,-2,2,-2
1615918448499709,-2,-1,-13,-23,-4,-3,-15,-3
1615918448499709,1,2,37,41,2,1,1,1
1615918448516663,-2,-4,-22,-23,-5,-1,1,-3
1615918448516663,-1,-1,-1,3,-1,1,0,-2
1615918448516663,0,-1,-4,2,-3,-10,2,1
1615918448516663,-2,-3,-4,4,-2,1,-2,-2
1615918448545586,0,1,3,-18,-2,2,-3,-1
1615918448545586,0,2,7,46,-1,0,-4,-1
1615918448546584,1,2,14,-4,2,0,6,0
1615918448546584,-2,-1,-14,-7,3,0,-4,-1
1615918448551570,1,-1,5,3,-2,-1,0,0
1615918448551570,0,2,-2,-12,1,-1,-2,1
1615918448559548,-1,0,7,-13,-1,1,0,-1
1615918448559548,1,4,40,28,-3,0,-1,0
