timestamp,emg1,emg2,emg3,emg4,emg5,emg6,emg7,emg8
1615918564890456,-1,0,-11,9,0,-2,0,0
1615918564890456,-3,0,-4,13,-3,-4,-2,-2
1615918564892450,-3,-2,-21,-10,-2,4,0,-1
1615918564892450,0,-3,-18,-8,-3,-1,5,0
1615918564904420,-1,-1,21,0,2,5,3,1
1615918564904420,-2,-4,-4,3,0,-5,-9,-3
1615918564911541,0,-5,-22,-14,-5,-15,-6,-4
1615918564911541,0,-2,-1,-2,-1,2,1,-1
1615918564927841,-1,-2,-9,4,0,-2,-4,1
1615918564927841,-1,2,0,-17,-1,3,3,0
1615918564928680,0,3,32,24,1,5,2,0
1615918564928680,-2,-1,-1,0,0,-2,0,-1
1615918564949540,1,-1,-20,-1,-4,0,6,3
1615918564949540,-2,1,13,1,0,-2,-18,-3
1615918564951534,-1,0,-3,-5,-1,4,-5,1
1615918564951534,-2,-5,-25,-24,-1,-7,4,-2
1615918564964503,-3,-3,23,22,0,-1,0,-3
1615918564964503,0,1,13,-9,-1,0,4,3
1615918564971503,-2,-2,-12,3,0,-1,-3,2
1615918564971503,-1,-2,-21,-10,-1,2,-2,-1
1615918564987439,2,-1,-1,-11,-2,-2,-5,-2
1615918564987439,-2,1,15,10,-2,-3,0,-2
1615918564990435,-1,0,2,-13,-1,8,4,-2
1615918564990435,1,2,50,40,4,1,8,3
1615918565009742,-3,-1,-11,-22,-2,-8,4,-2
1615918565009742,-2,-2,-10,14,-2,-6,-21,-7
1615918565011714,-2,-1,-9,2,-1,5,4,-2
1615918565011714,-1,1,12,-3,-1,2,-1,2
1615918565023297,-2,-3,-4,18,2,3,-1,1
1615918565023297,2,0,-2,-20,0,6,7,1
1615918565032549,-3,-2,1,0,-2,-9,0,0
1615918565032549,1,2,-9,-11,0,5,3,1
1615918565055511,-3,-3,9,3,-2,0,-8,-4
1615918565055511,1,2,1,3,-1,-5,5,1
1615918565057483,1,-3,-16,-2,-2,-3,-6,-2
1615918565057483,1,6,19,8,1,2,4,-2
1615918565069477,-2,-4,-14,-21,-5,-4,-5,-3
1615918565069477,-1,-4,-13,-5,-3,1,2,1
1615918565071445,-1,-1,25,24,-3,7,6,2
1615918565071445,-6,-6,-23,-15,-4,-19,-3,-6
1615918565083415,-1,1,6,6,1,1,-22,-2
1615918565083415,-1,-2,-11,-10,-2,-2,12,0
1615918565098313,-2,-3,-21,-10,-1,-2,-14,-3
1615918565098313,0,1,-14,-10,-1,-1,3,0
1615918565107355,-1,2,28,25,0,4,3,1
1615918565107355,0,2,7,1,1,-3,0,-1
1615918565109356,-2,-4,-29,-35,1,2,2,-1
1615918565109356,1,3,37,40,-1,-3,-8,0
1615918565129535,0,-1,-24,-30,0,3,3,0
1615918565129535,1,-1,20,23,-2,0,-1,0
1615918565131503,1,-1,-6,1,0,0,1,0
1615918565131503,-5,-8,-22,-13,-3,2,-9,-3
1615918565143601,4,4,19,13,1,-2,3,0
1615918565143601,0,1,-13,-17,0,5,12,0
1615918565152577,0,3,40,16,-1,-3,-19,1
1615918565152577,-2,0,-19,-1,0,-5,2,0
1615918565167118,-2,-3,-2,2,-2,-4,1,0
1615918565167118,-1,-3,-22,-25,0,4,0,-3
1615918565169112,2,5,30,12,0,-3,5,2
1615918565169112,-2,-2,-2,-22,-2,2,-3,-1
1615918565190077,0,0,11,29,1,-7,0,-1
1615918565190077,1,-2,-1,-11,0,-1,-5,-2
1615918565192073,-3,-6,-34,-38,-3,3,1,-2
1615918565192073,1,1,19,3,0,1,3,-1
1615918565204057,1,5,22,32,1,1,5,1
1615918565204057,-3,-6,-17,-7,-3,6,-7,-1
1615918565212655,-1,1,10,6,-1,-11,-5,-2
1615918565212655,0,-4,-12,-14,0,5,2,-2
1615918565227479,-2,-3,-31,-14,0,-6,8,-1
1615918565227479,1,2,11,12,-1,-7,-15,0
1615918565229501,-1,-3,-19,-11,-4,1,2,-1
1615918565229501,-3,1,-8,-12,-2,-2,-1,-1
1615918565249565,-3,-3,12,20,0,2,2,-1
1615918565249565,-2,0,-1,2,1,0,0,0
1615918565251560,-2,-1,-18,-9,0,3,1,-2
1615918565251560,0,-2,-4,-2,-3,-4,0,2
1615918565263566,0,-4,-18,-21,-2,-7,-6,-3
1615918565263566,-1,4,45,52,1,-1,2,-1
1615918565272580,-1,-1,-10,-15,-2,-2,-1,-3
1615918565272580,-1,2,-11,10,2,1,5,0
1615918565286982,1,2,-4,-37,0,9,-3,0
1615918565286982,-3,-4,-12,6,-1,-13,1,-2
1615918565289976,-2,-2,13,-7,-1,-1,3,-2
1615918565289976,2,-2,17,36,0,2,-2,1
1615918565309922,-5,-3,-17,-22,-4,2,5,0
1615918565309922,-1,-1,1,-12,-2,-9,-16,-2
1615918565311942,-2,-2,-29,1,1,7,3,1
1615918565311942,0,-1,-10,-13,-1,1,0,1
1615918565332913,0,1,0,11,2,3,-1,-1
1615918565332913,-3,-4,-5,-18,-5,-5,6,-4
1615918565333911,1,6,50,39,2,-2,2,2
1615918565333911,-1,-4,-28,-21,-2,-5,-7,-3
1615918565354669,-2,-4,0,-4,-1,3,2,0
1615918565354669,1,-3,9,13,-2,5,2,1
1615918565356637,-1,-4,-30,-23,-2,-3,-2,-2
1615918565356637,1,2,26,0,-2,-2,-2,-2
1615918565386152,2,0,5,18,0,-8,-3,0
1615918565386152,-1,3,12,-18,-1,6,3,1
1615918565387157,-3,-3,1,14,-3,-6,0,-1
1615918565387157,-1,-3,7,7,-1,4,3,-2
1615918565388153,-5,-6,-11,-37,-5,-7,-2,-1
1615918565388153,0,7,5,23,0,-3,-17,-2
1615918565400119,1,1,-14,-11,1,4,8,3
1615918565400119,-2,-6,-29,-18,-1,0,-2,-3
1615918565407186,0,0,11,25,-1,-13,-3,0
1615918565407186,-2,-5,-31,-13,0,7,8,-1
1615918565409189,-2,-1,0,-9,-1,-7,-1,-2
1615918565409189,0,2,11,7,-1,-4,-5,-2
1615918565429660,3,3,8,1,1,8,-2,1
1615918565429660,-1,-3,-11,-18,-1,-3,2,0
1615918565431656,-4,-2,-8,5,-4,-10,-7,-4
1615918565431656,-2,-1,16,0,-1,4,-1,-1
1615918565443745,-2,1,6,7,0,0,-3,-2
1615918565443745,-2,-2,1,-25,-1,1,2,-3
1615918565452708,2,-1,2,38,0,-2,5,-1
1615918565452708,1,2,4,-3,2,1,4,1
1615918565467686,-1,-1,-8,-26,-2,2,-19,-5
1615918565467686,0,-2,16,18,0,-3,2,0
1615918565468684,-2,0,13,-25,-3,-7,-2,0
1615918565468684,-1,3,29,56,0,-4,1,0
1615918565490553,-3,-4,-32,-23,-3,0,2,-1
1615918565490553,-3,-3,-11,-3,-2,0,-1,-3
1615918565492549,2,1,21,-1,1,6,1,1
1615918565492549,0,-3,-19,-14,0,-5,-7,-2
1615918565503595,-2,-4,0,-3,-2,2,3,-1
1615918565503595,-1,2,6,17,1,-5,-3,0
1615918565513079,-1,-4,-28,-13,-2,-4,-7,-3
1615918565513079,-2,-2,2,11,-1,2,-2,1
1615918565527979,0,-1,0,-3,1,-3,7,0
1615918565527979,1,-1,-10,-15,-1,-1,-11,0
1615918565529000,-1,-2,-3,10,-1,-2,-3,-2
1615918565529000,-2,-2,-12,-27,-1,0,-2,-1
1615918565549787,-2,-4,5,17,-1,-4,-1,-2
1615918565549787,2,-1,-14,-14,-1,5,11,0
1615918565551759,2,4,16,-1,1,4,0,2
1615918565551759,-3,-3,-20,8,-2,-12,-10,-7
1615918565563727,0,3,-6,-4,0,0,0,-1
1615918565563727,0,1,14,6,-2,2,3,3
1615918565572514,-3,-1,-3,-3,-1,0,2,-1
1615918565572514,-4,-3,8,7,-2,-5,2,-2
1615918565587499,-1,1,0,-21,-3,-4,-4,-2
1615918565587499,1,0,12,20,0,4,0,1
1615918565593458,1,0,-6,12,1,3,-3,-2
1615918565593458,-1,0,6,-11,-3,-5,1,0
1615918565610459,-3,-5,-15,-22,-1,-7,-3,-3
1615918565610459,-1,3,33,18,1,-2,0,-1
1615918565611457,0,4,14,8,1,3,-1,0
1615918565611457,1,-1,-17,-15,0,7,6,1
1615918565632410,2,2,20,21,0,-8,-18,-1
1615918565632410,-3,-3,-11,4,-2,-2,-1,-3
1615918565634396,0,-1,-13,-6,-2,0,1,2
1615918565634396,-1,1,6,6,0,-2,-1,-2
1615918565647361,1,-1,-8,-41,0,5,4,1
1615918565647361,-2,1,12,52,2,-3,7,0
1615918565653344,-4,-5,24,5,-3,-11,-20,-3
1615918565653344,2,-1,-16,-15,-2,2,2,3
1615918565669680,-6,-3,-9,-4,-2,-1,-2,-3
1615918565669680,1,5,28,4,-2,3,-4,-1
1615918565671675,0,-4,-31,-24,-1,-1,4,-1
1615918565671675,1,-2,11,16,-2,1,-2,0
1615918565699564,1,2,1,8,1,-1,5,1
1615918565699564,-5,-9,-30,-20,-6,-3,0,-2
1615918565701558,0,3,5,-1,-2,-10,-22,-3
1615918565701558,-4,-3,-10,-7,0,10,-2,-1
1615918565707916,0,1,-4,11,0,-3,2,-1
1615918565707916,0,-1,-17,-13,2,1,3,0
1615918565708777,0,-2,-4,2,0,2,6,1
1615918565708777,0,-2,-1,-25,-2,-3,-4,-2
1615918565729742,3,9,65,55,2,2,1,0
1615918565729742,-1,-4,-34,-45,-4,-2,-3,-3
1615918565731735,0,-1,9,24,2,3,2,1
1615918565731735,1,0,-2,-10,-1,-2,0,0
1615918565752551,-3,-6,-23,-5,-2,-4,0,-4
1615918565752551,3,1,14,-7,-1,-9,-6,0
1615918565754564,0,1,11,-6,1,4,3,0
1615918565754564,0,0,2,15,-1,0,3,1
1615918565767000,-2,-1,4,8,-2,2,0,1
1615918565767000,-1,-5,-16,2,-3,-4,-3,-1
1615918565773227,1,-1,-10,-15,1,8,15,-2
1615918565773227,-1,0,7,-3,1,-13,-22,-1
1615918565789679,-5,-3,10,17,-2,-1,2,-1
1615918565789679,0,3,19,-3,1,4,-1,1
1615918565792648,-3,-1,3,-12,-1,-10,5,1
1615918565792648,2,-1,-9,4,0,7,5,-1
1615918565812241,-1,-6,-17,-7,-2,0,-5,-2
1615918565812241,0,2,-8,-1,1,2,3,2
1615918565814237,-1,-6,-10,-3,-3,-3,-5,-2
1615918565814237,0,1,3,6,-1,1,0,0
1615918565827283,-3,-3,-30,-37,-2,-5,-6,-2
1615918565827283,1,4,23,46,2,1,2,1
1615918565834274,-1,-3,-3,-3,-2,8,0,1
1615918565834274,-2,-2,-7,-9,-2,-5,-3,-1
1615918565850306,0,0,6,-2,-1,1,11,-2
1615918565850306,-1,0,-5,-21,0,-4,-9,-3
1615918565851271,1,3,29,24,-1,-5,-7,-3
1615918565851271,-2,4,7,-6,0,8,7,-2
1615918565872319,0,-3,-14,3,2,-2,-3,0
1615918565872319,-4,-3,-2,-23,-7,-4,7,-1
1615918565874301,-5,-3,-3,15,-1,-2,-5,-4
1615918565874301,-2,-3,-13,5,0,-4,0,-1
1615918565887261,5,2,1,-2,-2,2,1,4
1615918565887261,-1,-4,13,4,3,4,1,-1
1615918565893245,-5,-5,-30,-22,-1,-7,0,-3
1615918565893245,1,3,27,8,-2,1,-3,-1
1615918565910222,-2,-2,-13,16,1,-5,1,0
1615918565910222,-1,-4,-6,-10,-1,0,-4,-1
1615918565911196,-1,-2,-20,-25,-2,3,1,0
1615918565911196,-1,-1,-3,36,-1,1,7,-1
1615918565933161,-1,-2,11,-3,0,-4,-10,-1
1615918565933161,0,-3,-19,-41,-2,-3,-7,-2
1615918565935157,3,6,17,46,0,1,4,2
1615918565935157,-3,-5,-16,-24,-2,-10,1,-1
1615918565946889,-3,-4,-6,4,-3,6,1,-1
1615918565946889,-3,0,4,-8,0,-1,-3,-1
1615918565953870,0,-4,-24,-16,0,2,-2,1
1615918565953870,-2,0,14,-6,-2,-3,-1,-2
1615918565969827,2,1,-7,1,0,2,-1,0
1615918565969827,-3,-4,-18,4,-1,1,-3,-3
1615918565975811,-2,0,16,5,-2,-7,5,-1
1615918565975811,-2,-1,6,1,-1,0,-15,-2
1615918565992792,-1,-2,-9,-2,-3,3,-3,-2
1615918565992792,-1,0,-9,3,-3,-4,0,0
1615918565994761,4,0,-12,-10,-2,2,8,0
1615918565994761,-7,-7,3,-7,-2,-9,-15,-5
1615918566006753,1,8,23,40,1,-3,-3,0
1615918566006753,2,-4,-15,-13,0,4,2,2
1615918566013711,0,1,11,0,1,-2,1,1
1615918566013711,0,-3,-9,-13,-1,2,5,0
1615918566029692,-5,-5,-14,-13,1,-3,-3,-2
1615918566029692,-2,4,18,12,1,-1,-2,0
1615918566031663,-3,-4,-20,14,-1,-2,-3,0
1615918566031663,3,0,-7,-15,-1,2,5,1
1615918566052607,0,2,15,0,-1,2,0,0
1615918566052607,-1,-2,-14,2,-2,-7,0,-1
1615918566053629,-2,-3,-20,-29,-5,-1,-7,-5
1615918566053629,1,0,11,17,-1,1,0,-1
1615918566075309,0,0,-8,-7,-1,-3,1,-1
1615918566075309,0,-1,1,-3,-2,-1,-1,-1
1615918566076282,-2,-3,-3,-15,-2,-2,-4,-4
1615918566076282,0,-1,-10,1,1,-2,2,-2
1615918566090245,1,-1,4,-4,-1,-2,0,-1
1615918566090245,0,1,15,-1,1,0,1,2
1615918566092244,-3,-4,8,-4,-3,-3,3,-2
1615918566092244,1,5,2,5,0,-1,-19,-2
1615918566112924,-5,-6,-3,3,-2,-8,0,-2
1615918566112924,-2,0,-6,-3,0,-3,5,-2
1615918566113922,-2,-3,-13,-11,-1,-1,-10,-1
1615918566113922,1,3,35,22,1,4,6,2
1615918566126590,1,-1,4,-33,-2,-4,-1,-1
1615918566126590,-3,1,15,46,0,4,-1,-1
1615918566135557,0,-4,-9,-16,-3,4,2,0
1615918566135557,0,1,-26,-2,-1,0,3,2
1615918566150517,-1,-1,0,-1,0,-4,-6,-2
1615918566150517,-2,-2,-6,-5,-2,1,1,-2
1615918566151514,0,1,-10,-3,1,-2,-2,0
1615918566151514,-3,-4,-9,-7,-2,-1,0,-4
1615918566172445,3,1,-10,-16,-2,3,5,2
1615918566172445,1,-2,3,9,0,2,-2,0
1615918566174409,1,2,16,16,1,1,-2,1
1615918566174409,-1,0,17,7,0,1,8,0
1615918566186741,-4,-4,-16,-32,-1,4,4,-1
1615918566186741,0,0,10,15,-1,-13,-26,-4
1615918566194695,-1,1,2,-4,-2,-1,1,1
1615918566194695,-1,-2,-9,-12,-1,3,6,0
1615918566210650,1,3,16,14,2,1,3,-2
1615918566210650,0,-3,-17,-16,0,7,3,0
1615918566211648,-2,-1,5,11,-2,-5,2,-5
1615918566211648,0,-1,2,-3,-3,1,3,1
1615918566233588,-3,-7,-30,-15,-2,-1,-12,-1
1615918566233588,-1,4,19,6,3,1,2,0
1615918566234609,2,1,28,25,1,-6,0,0
1615918566234609,-1,-5,-26,-16,-2,1,6,1
1615918566254556,-3,-5,-13,17,-2,5,0,-4
1615918566254556,-2,-1,5,-1,-1,-5,0,-1
1615918566256526,-2,2,-15,-18,-3,0,-4,1
1615918566256526,-3,-5,-33,-18,-1,3,-3,-2
1615918566277099,3,8,52,37,-1,-6,-4,-1
1615918566277099,2,-1,-19,-32,-3,3,1,1
1615918566279093,-1,-1,13,12,-1,-4,1,-1
1615918566279093,0,0,2,3,-3,-4,-6,-2
1615918566300037,-3,-2,-10,3,-2,0,-1,-4
1615918566300037,-2,-6,-16,-8,-2,-3,4,1
1615918566302032,-2,-1,1,-31,-1,2,8,0
1615918566302032,1,1,13,41,3,-4,-28,-3
1615918566306045,-2,-1,-5,-10,-2,-6,2,-1
1615918566306045,-2,-2,3,6,1,7,3,-1
1615918566314998,0,-1,-13,-7,-3,-8,1,0
1615918566314998,0,0,0,-16,-3,-1,2,-1
1615918566330955,1,2,14,17,0,-1,0,-1
1615918566330955,-1,-1,-7,-13,-2,1,-2,-1
1615918566331952,-1,-4,-8,8,0,2,-6,-3
1615918566331952,-2,-2,-2,-2,1,-3,5,-1
1615918566352895,-1,-1,-11,-18,-2,1,-4,0
1615918566352895,0,6,-1,39,-1,-6,3,-1
1615918566353893,-2,-1,12,-3,-2,6,-5,-1
1615918566353893,-1,-3,-23,-40,-3,-7,-1,-3
1615918566374837,0,-1,24,27,2,1,2,3
1615918566374837,-2,-3,-14,-21,-2,-1,-4,-1
1615918566376387,0,-3,-6,7,0,3,0,-2
1615918566376387,0,1,14,1,0,-4,0,0
1615918566397703,0,-2,-15,-14,-3,-2,0,0
1615918566397703,0,1,15,0,0,0,-1,-2
1615918566398701,0,-1,-1,9,1,-4,-3,0
1615918566398701,-3,-3,7,-3,0,1,3,-1
1615918566419668,-2,-4,-20,-6,0,3,0,-2
1615918566419668,0,3,23,17,0,-2,6,1
1615918566421639,0,-4,-17,-26,-2,-4,-5,-2
1615918566421639,1,2,0,30,2,0,-4,2
1615918566426656,-1,1,16,-8,-1,2,6,1
1615918566426656,-2,-6,-9,-26,-3,-6,-8,-4
1615918566435632,0,-1,-24,20,0,2,5,0
1615918566435632,0,1,28,15,-1,-2,2,1
1615918566449588,-1,0,-11,-9,-2,0,-6,1
1615918566449588,-1,-4,-20,-15,-1,0,6,-2
1615918566451559,-4,-1,24,-3,-5,2,-5,-4
1615918566451559,-2,-7,-55,-32,0,-5,0,-3
1615918566472503,2,10,77,59,2,-1,2,0
1615918566472503,-2,-2,-5,-22,-2,2,-3,0
1615918566474522,-1,-3,-6,12,1,-2,-5,-2
1615918566474522,-1,-1,2,5,1,6,1,-1
1615918566486462,-4,-2,-9,-16,-4,-8,2,-2
1615918566486462,1,-2,-15,-20,-1,-1,6,-2
1615918566495414,2,7,19,27,2,6,-22,-2
1615918566495414,-1,0,12,-3,-3,-4,3,1
1615918566509377,0,-4,-30,-13,1,-2,-4,-1
1615918566509377,-2,-2,19,10,-1,-3,1,-2
1615918566515681,-3,-5,-33,-32,-3,2,9,1
1615918566515681,0,5,61,38,3,-1,1,-1
1615918566532618,-1,-2,-4,1,1,-2,-3,1
1615918566532618,-1,-2,-16,-12,-2,-4,-2,0
1615918566534613,-1,0,-7,-8,0,-2,-1,0
1615918566534613,-2,-1,5,6,-3,-5,-1,-2
1615918566554584,-3,-6,-13,-12,-1,3,1,-3
1615918566554584,2,-1,4,2,-2,-1,0,-1
1615918566556554,0,1,19,19,-2,-1,1,-1
1615918566556554,-3,-5,-16,-14,-3,-6,-3,-3
1615918566570517,0,2,-26,-21,-1,0,8,1
1615918566570517,-3,2,37,21,2,2,-25,-3
1615918566571525,1,2,1,-6,1,-7,5,0
1615918566571525,0,1,3,8,-1,5,0,-1
1615918566592482,1,-4,3,-7,-1,0,3,1
1615918566592482,-1,-4,-33,-22,-1,2,2,1
1615918566595451,1,2,42,27,3,0,-1,0
1615918566595451,-4,-3,-14,-28,-3,-3,1,-3
1615918566615397,-1,-3,-2,2,-5,-4,-6,-3
1615918566615397,0,-1,-1,33,-1,0,1,2
1615918566616421,-1,-1,8,-11,-2,-1,2,-1
1615918566616421,2,3,-21,-7,2,14,5,1
1615918566629711,-2,-2,-9,-19,-5,-16,-2,-2
1615918566629711,-2,2,2,17,-2,-2,-3,-2
1615918566636620,-3,-3,-4,-14,0,3,2,0
1615918566636620,-3,-3,-8,-12,-3,-2,0,-1
1615918566652843,1,0,12,16,1,3,-4,0
1615918566652843,1,1,0,5,-2,0,4,0
1615918566653840,-1,-3,-12,-14,-3,-4,5,0
1615918566653840,-1,-3,-6,-11,-3,1,-15,-1
1615918566674808,0,-3,-10,0,0,2,0,0
1615918566674808,-3,-5,-3,-3,0,-6,2,-4
1615918566676779,2,2,7,-17,-1,-7,-1,1
1615918566676779,1,1,13,30,2,3,5,-1
1615918566689744,-1,1,5,7,0,1,-2,-2
1615918566689744,0,3,10,-3,-2,-8,-1,-2
1615918566695728,-4,-6,-30,-35,-6,3,0,-3
1615918566695728,-3,-1,19,38,1,-4,-1,-2
1615918566712707,1,0,-8,-18,-1,3,0,1
1615918566712707,-3,-3,10,3,0,0,0,-2
1615918566713681,1,0,14,24,0,-2,-2,0
1615918566713681,-3,-1,-10,-24,-5,-5,-1,-1
1615918566734695,-1,-1,-15,1,1,0,-6,-2
1615918566734695,-3,-3,-11,-18,0,6,3,0
1615918566736690,2,1,10,9,-2,-2,2,0
1615918566736690,-1,-6,-26,-11,-2,-12,-1,-2
1615918566749655,0,1,28,-4,0,2,-19,-1
1615918566749655,3,-1,-17,11,-1,0,3,0
1615918566763231,-2,-1,17,18,0,-4,0,-2
1615918566763231,0,-3,-21,-29,-1,1,4,0
1615918566772231,-3,-2,10,11,0,1,3,0
1615918566772231,-2,-3,4,9,0,4,-4,-2
1615918566774203,-4,-4,-26,-11,-3,-2,-6,-4
1615918566774203,0,0,16,-4,-3,-7,0,0
1615918566795146,-2,0,-20,16,0,-7,-1,-1
1615918566795146,-2,0,2,-18,0,0,-3,1
1615918566797165,-1,-1,-14,-1,0,6,4,0
1615918566797165,0,3,16,10,1,2,-3,-1
1615918566809108,-2,-5,-16,-19,0,-6,1,-2
1615918566809108,-2,0,23,23,-2,-4,4,0
1615918566816090,-2,-3,-18,-7,-1,-5,0,-1
1615918566816090,2,0,7,1,0,3,-10,0
1615918566832073,-2,3,15,2,-1,3,3,-1
1615918566832073,-2,-5,-20,-12,-3,2,-3,-3
1615918566834043,2,3,9,-9,0,-6,10,4
1615918566834043,-1,-2,-3,14,-3,-4,-2,-3
1615918566854986,0,-2,-5,-5,-3,-1,-2,-1
1615918566854986,0,-4,-19,-14,1,1,0,-1
1615918566856981,2,7,34,14,-1,1,1,0
1615918566856981,0,1,2,-4,-1,-1,-3,1
1615918566868948,-2,1,5,-1,-1,-3,0,-1
1615918566868948,-2,-2,-11,-16,-2,0,-1,1
1615918566876017,-5,-5,-9,16,1,1,1,-3
1615918566876017,-2,-1,-5,-18,-1,2,5,0
1615918566892971,-3,-2,-15,4,-5,-13,-14,-3
1615918566892971,-1,3,23,-4,0,-1,-3,0
1615918566894966,-2,-7,-25,3,1,-4,-6,-3
1615918566894966,0,0,-4,-1,0,0,5,0
1615918566915934,2,-3,-13,-10,0,5,3,1
1615918566915934,-2,-3,-17,-21,-2,-3,-4,0
1615918566916932,2,4,27,32,0,-2,-5,0
1615918566916932,1,-3,0,-7,0,4,-2,-1
1615918566928901,1,2,-4,-10,0,5,5,0
1615918566928901,2,3,1,23,-1,-7,0,-3
1615918566936678,0,-2,0,-8,-4,-3,-4,1
1615918566936678,-7,-4,-7,-21,-2,2,-2,-4
1615918566952638,1,-3,-5,14,-1,3,7,1
1615918566952638,0,2,4,-8,0,-7,-13,-1
1615918566954633,-1,-1,1,-4,0,4,-1,-1
1615918566954633,-1,0,-7,-1,-1,-9,-2,-1
1615918566975466,-4,-6,-8,2,-2,-3,-2,-4
1615918566975466,0,0,-4,-9,-2,1,8,1
1615918566977216,-1,-2,-13,-11,-1,-1,4,-2
1615918566977216,1,-1,3,15,0,1,-20,0
1615918566997244,-2,3,24,-14,-1,2,5,1
1615918566997244,1,-4,-20,22,1,-5,2,2
1615918567000235,0,5,12,-17,0,-3,-4,-2
1615918567000235,2,-1,3,21,0,2,9,1
1615918567012205,-1,-3,-4,0,-2,1,-1,-1
1615918567012205,-1,-2,-8,3,0,-6,-5,-1
1615918567014198,-2,-2,4,-21,-1,4,1,1
1615918567014198,-2,-3,-14,15,2,1,2,1
1615918567034776,2,5,9,2,-1,-5,-4,-1
1615918567034776,-2,0,1,-9,-1,2,3,-1
1615918567041675,0,-6,-21,-1,-2,2,-2,-1
1615918567041675,-1,1,7,-12,-3,-6,0,-4
1615918567048659,-1,-1,-6,8,-1,5,1,0
1615918567048659,-1,-3,12,19,1,-2,-1,-2
1615918567064728,-2,-1,-32,-14,-2,8,-6,-1
1615918567064728,-1,1,15,13,-1,-10,16,1
1615918567072799,-2,-1,10,-15,-3,-10,-20,-1
1615918567072799,0,2,-5,-8,-2,9,2,0
1615918567073897,-2,-1,20,0,2,-2,0,-2
1615918567073897,-2,1,-6,5,-2,1,2,-2
1615918567094752,0,-5,-5,-9,-2,-7,3,1
1615918567094752,2,2,17,18,-1,-3,-3,1
1615918567096729,-3,-1,-5,-7,0,0,-4,-1
1615918567096729,0,1,-12,-26,-1,3,2,1
1615918567109691,1,-2,16,18,2,1,5,3
1615918567109691,-2,-2,-4,-7,-3,1,-5,-2
1615918567117676,-2,-2,-15,-6,-4,-6,3,0
1615918567117676,0,1,5,0,-1,6,5,1
1615918567132631,-2,-1,-27,11,0,-4,-8,-1
1615918567132631,-2,0,21,-14,-2,-3,-3,-4
1615918567134624,0,-1,-15,19,3,7,3,2
1615918567134624,-2,-2,16,-4,-1,-12,-9,-7
1615918567154663,-2,-2,-6,-22,-1,-2,5,0
1615918567154663,1,-4,-2,9,-2,-1,13,2
1615918567156632,0,2,29,6,-1,-4,-11,-1
1615918567156632,1,-2,-3,3,0,6,0,0
1615918567169136,-1,-3,11,15,0,3,-2,-3
1615918567169136,0,3,-6,-11,1,-2,0,0
1615918567177336,-1,-6,-21,-8,-3,-3,-2,-2
1615918567177336,-2,1,-6,-1,0,0,0,1
1615918567192805,-3,0,4,-1,-1,1,5,-2
1615918567192805,-1,-1,-3,-22,0,-2,1,-2
1615918567194823,0,0,9,25,-3,-2,-15,-1
1615918567194823,0,0,29,-7,-1,-6,-7,-3
1615918567215465,-1,-2,-11,4,0,7,2,-2
1615918567215465,3,4,-1,4,1,1,3,3
1615918567216464,-4,-1,-9,-10,-2,-3,3,-3
1615918567216464,-1,-5,-14,4,-1,-2,-2,0
1615918567229044,-3,0,15,2,0,-2,-1,-2
1615918567229044,-5,-4,-4,1,-1,-1,-6,-3
1615918567237918,1,3,4,6,2,4,3,0
1615918567237918,-1,-2,-11,-5,0,1,-3,-1
1615918567252836,-1,-3,-22,-6,0,6,2,0
1615918567252836,1,0,15,6,-3,-1,4,0
1615918567253809,-3,-2,-2,-3,-1,-8,-16,-5
1615918567253809,-1,-1,-25,-7,-3,1,10,0
1615918567275583,-1,0,6,6,0,-3,-1,0
1615918567275583,2,2,5,5,-1,3,-7,2
1615918567277109,-2,1,-3,-1,-2,0,7,0
1615918567277109,-1,-5,-15,-21,-2,-1,-3,0
1615918567289278,-1,-1,-5,-1,-2,3,6,1
1615918567289278,-2,-3,14,2,2,1,-4,-2
1615918567297283,1,2,27,7,1,4,4,-1
1615918567297283,-1,2,-9,-3,-3,-9,-3,0
1615918567320588,1,1,8,13,1,-1,-4,-2
1615918567320588,-2,-5,-14,-19,-2,-1,-1,-1
1615918567321587,-1,-5,-23,-17,-2,-2,1,-1
1615918567321587,-2,2,44,29,0,7,-2,-1
1615918567342766,0,0,-1,5,-2,-14,-4,-1
1615918567342766,-2,2,3,-9,-2,-2,-3,-2
1615918567344686,-2,0,9,6,1,2,4,0
1615918567344686,-2,-4,-1,11,-1,-1,1,2
1615918567348675,-3,-2,-10,-18,-1,5,2,-2
1615918567348675,0,0,2,11,-3,5,5,-2
1615918567363762,0,-4,-11,-19,-2,-9,3,2
1615918567363762,-1,0,-10,8,1,2,-3,-3
1615918567372812,0,2,10,-10,-1,-1,-13,0
1615918567372812,-3,-2,-11,5,0,-4,-3,0
1615918567373889,-1,0,-1,-6,0,-2,2,-1
1615918567373889,-2,-3,-1,-4,-3,-8,1,0
1615918567394791,-1,-1,5,4,0,7,3,0
1615918567394791,-3,-5,-25,-5,0,-7,-3,-4
1615918567396786,-1,-3,-19,1,1,2,-5,-2
1615918567396786,2,2,7,-12,-1,0,-2,1
1615918567408813,2,2,9,-13,0,-4,1,1
1615918567408813,-1,-3,6,22,1,2,-3,-1
1615918567417740,1,6,52,33,-2,-1,6,-1
1615918567417740,0,-4,-33,-23,-1,5,-2,-1
1615918567432806,0,-3,-13,-8,-1,-9,-2,-1
1615918567432806,-3,2,7,-10,1,1,0,-2
1615918567433805,-1,-4,-4,9,-1,1,-2,-2
1615918567433805,-1,2,5,-4,0,1,6,-2
1615918567454843,-3,-2,-3,-3,-2,-1,-4,-2
1615918567454843,0,-2,-4,17,-1,-8,-4,1
1615918567456733,1,0,-15,-7,0,7,10,2
1615918567456733,-1,-3,9,-3,-5,-6,-17,-3
1615918567478090,1,0,6,8,-1,-5,2,1
1615918567478090,-3,-5,-22,-13,-2,-3,-6,-4
1615918567478704,-2,-3,-17,-8,-1,4,-2,-1
1615918567478704,2,2,5,2,1,-3,1,1
1615918567492816,0,-2,-2,11,-1,1,2,-1
1615918567492816,0,-3,-11,-17,-1,-2,2,-1
1615918567494833,-3,-6,-1,2,-3,-3,-4,-1
1615918567494833,0,0,0,-1,-1,2,4,1
1615918567514646,-3,-1,-3,0,-3,-3,-7,-3
1615918567514646,0,1,-6,-5,-2,2,1,-1
1615918567516638,-1,1,14,-3,-1,-3,2,1
1615918567516638,-3,-1,-31,-10,-1,2,-3,0
1615918567538016,-1,-3,0,-2,0,-1,7,-1
1615918567538016,1,4,19,14,-1,0,-2,1
1615918567538681,0,-2,-8,-11,-2,4,-6,-2
1615918567538681,-2,-6,-20,-12,0,-7,-2,-4
1615918567552871,0,0,-8,-5,-3,0,-1,0
1615918567552871,-1,2,24,10,-3,1,-3,-1
1615918567553868,-2,-5,-22,-21,-2,-7,-2,-1
1615918567553868,-4,0,16,19,1,5,3,-2
1615918567575610,-2,-5,-6,-1,-1,1,-2,-3
1615918567575610,-2,-2,-17,-14,-1,-4,-1,-1
1615918567577284,1,1,-6,22,-1,3,2,1
1615918567577284,-3,2,2,-17,-3,-4,-1,-2
1615918567598282,0,4,49,18,3,1,7,0
1615918567598282,-1,-4,-10,-6,-1,3,-12,-1
1615918567600276,-1,3,-12,-5,-1,-2,-2,-3
1615918567600276,4,2,9,-3,-1,-7,3,4
1615918567612376,0,-5,-31,8,-3,5,-1,-2
1615918567612376,-1,1,3,-15,-1,-1,5,-1
1615918567618751,-2,-3,2,-7,-3,-7,-5,-3
1615918567618751,-1,-3,-4,8,1,3,-6,-2
1615918567634632,-4,-3,-27,-23,-1,2,0,-2
1615918567634632,1,2,35,5,0,0,3,1
1615918567636623,-1,-1,1,27,-1,-6,-3,-1
1615918567636623,-1,1,-3,-5,1,5,2,0
1615918567657675,-2,-2,-4,-7,-3,-1,1,0
1615918567657675,-1,-3,10,1,-2,-1,-3,-3
1615918567659577,1,1,14,6,0,2,13,1
1615918567659577,-2,-3,-14,-11,0,-4,-15,-3
1615918567672423,-2,-1,17,15,-1,-3,-12,-3
1615918567672423,1,0,-12,8,0,-3,3,3
1615918567678798,-5,1,4,-1,0,-8,1,-3
1615918567678798,1,-3,2,-5,-2,3,10,0
1615918567695577,0,-1,-12,7,1,3,-3,0
1615918567695577,-1,1,6,2,1,0,-2,-1
1615918567696576,-2,0,4,-6,2,3,-4,-1
1615918567696576,-2,-1,-15,-7,-2,-8,-4,0
1615918567717755,-2,-2,-5,9,-2,-7,1,1
1615918567717755,-2,-4,-22,-18,-1,3,1,0
1615918567719735,2,5,17,12,-2,5,-4,0
1615918567719735,-1,-1,0,-8,-3,1,-1,-1
1615918567731758,0,-1,-1,-9,-1,-1,4,1
1615918567731758,-2,-5,-24,-2,0,0,2,-2
1615918567739102,1,-1,14,-1,-2,-3,-4,2
1615918567739102,-2,0,7,18,-1,3,0,-2
1615918567754833,0,-3,-19,-11,-3,-1,6,-1
1615918567754833,0,2,5,-13,-1,-5,-1,-2
1615918567756728,0,-3,-14,-9,0,-4,-10,0
1615918567756728,-1,1,28,25,-2,-1,2,0
1615918567778074,-2,-4,1,-16,-1,4,-2,-1
1615918567778074,-6,1,-1,13,-3,-3,1,0
1615918567778679,-1,-4,-30,-34,-2,1,2,-2
1615918567778679,1,3,17,13,0,-8,-3,1
1615918567791713,2,4,22,8,1,4,6,1
1615918567791713,-2,-2,-7,-5,0,-1,-3,-1
1615918567798705,-2,-3,-11,-7,0,-2,-4,-4
1615918567798705,0,-1,17,7,0,2,-1,-1
1615918567815795,-3,1,7,-4,0,-4,-3,-1
1615918567815795,1,-1,-3,3,-1,-6,-1,-1
1615918567821723,-5,-1,-2,7,-1,2,-3,0
1615918567821723,-2,-3,-20,-13,-2,1,-1,-1
1615918567838066,2,5,8,-2,-1,-4,-3,3
1615918567838066,-1,-3,-13,13,-1,0,0,0
1615918567838679,0,-2,13,-25,-2,0,2,-3
1615918567838679,1,4,2,13,2,-4,-1,-1
1615918567851671,1,-3,-10,-8,0,-1,-2,-2
1615918567851671,-2,-7,-18,3,-4,5,-1,-3
1615918567859268,-2,-2,8,10,-1,-13,-4,-2
1615918567859268,-3,-4,-7,-26,-2,5,6,-1
1615918567875385,-2,0,23,22,-1,-1,-8,-3
1615918567875385,0,-4,5,-7,1,-7,-3,0
1615918567877365,-1,0,-4,-6,-1,0,2,-2
1615918567877365,1,-1,-17,-15,-2,-8,-9,-3
1615918567897418,0,-1,1,9,-1,5,7,1
1615918567897418,-1,-1,-1,-7,-1,2,0,-4
1615918567899413,-2,-4,-9,2,-2,0,-4,0
1615918567899413,1,0,3,6,1,1,5,1
1615918567911384,-1,0,-16,-14,-1,2,-2,-1
1615918567911384,-4,-1,2,4,-1,-6,-3,-2
1615918567920354,1,2,0,-23,-1,5,11,2
1615918567920354,0,-2,12,22,-1,2,-12,-3
1615918567934738,-1,-3,-14,-6,-2,-6,-5,-3
1615918567934738,-1,-2,-7,2,-4,-2,-2,-2
1615918567937250,0,4,15,-2,2,3,-1,-1
1615918567937250,0,2,15,2,0,3,8,2
1615918567958046,-1,-2,-12,9,1,1,-2,-1
1615918567958046,-1,0,3,-23,-1,0,1,2
1615918567958912,-3,-4,-1,-4,-3,-11,-5,-4
1615918567958912,1,1,15,42,2,4,-2,1
1615918567971341,0,-3,-25,-16,0,1,-1,1
1615918567971341,0,-1,-9,-16,-1,-2,6,-1
1615918567988274,-1,-2,-4,17,-1,0,-13,0
1615918567988274,-5,-2,5,-4,-1,-3,-2,-3
1615918567995271,-3,-4,4,-10,-4,-6,0,-3
1615918567995271,1,6,25,29,1,6,3,1
1615918567997250,1,2,8,1,-1,0,7,1
1615918567997250,-1,-3,-22,-21,-1,-5,-18,-4
1615918568017225,0,0,14,8,2,-1,4,1
1615918568017225,-3,-5,-25,-16,-2,-2,-3,-3
1615918568019211,-1,-1,-2,9,0,-6,3,-1
1615918568019211,1,1,-4,-5,-1,2,5,-1
1615918568031726,-2,-2,-20,-27,1,-3,-3,-2
1615918568031726,4,5,36,23,0,-4,-1,1
1615918568039952,1,-4,-6,6,0,4,-2,2
1615918568039952,-4,-2,-4,-3,-2,-2,0,-2
1615918568062706,-1,1,-1,5,0,0,-4,0
1615918568062706,-3,-3,-14,-3,0,1,-1,-2
1615918568064704,-1,-1,5,6,0,-3,-2,-1
1615918568064704,1,4,0,-14,-3,-3,0,-1
1615918568077693,-1,-1,-4,1,-2,2,1,-1
1615918568077693,2,6,46,17,-1,3,-2,1
1615918568079664,-1,-3,-19,-8,-2,1,-1,-2
1615918568079664,-4,-6,-8,-5,-1,-1,4,-2
1615918568091747,-3,-1,2,-10,-2,-3,-1,-2
1615918568091747,2,1,15,9,1,0,-1,0
1615918568107472,-1,0,-10,11,0,1,-1,-1
1615918568107472,0,0,5,2,-3,4,8,1
1615918568115490,2,0,-7,-23,-3,-2,5,1
1615918568115490,-3,-3,-15,9,-1,-4,-20,-4
1615918568116490,-2,1,20,16,2,-4,2,-1
1615918568116490,0,-4,-24,-18,-3,-4,-2,0
1615918568138077,-4,-4,-5,11,0,-1,3,-1
1615918568138077,0,-3,-24,-25,-1,0,3,0
1615918568138679,1,2,9,3,-2,0,-6,-3
1615918568138679,-1,-3,12,17,2,-2,1,0
1615918568151673,0,-1,-3,-1,-2,0,-2,1
1615918568151673,1,-2,-11,2,1,2,2,0
1615918568160001,-5,-4,-9,4,-3,0,-5,-4
1615918568160001,1,0,-2,-2,-3,-5,-1,-1
1615918568174823,-1,-3,-14,-7,-2,3,2,-2
1615918568174823,-1,2,16,-2,1,-2,0,-1
1615918568177278,-1,-1,12,-10,-1,-4,-6,-1
1615918568177278,-4,-4,-15,13,1,5,4,1
1615918568198478,1,6,9,7,-1,-6,5,-1
1615918568198478,-2,-4,-10,-3,1,6,-5,-3
1615918568199475,0,-4,-5,-16,-1,-5,3,-1
1615918568199475,1,1,1,-8,-1,0,-2,3
1615918568211407,0,-1,-3,5,-1,2,0,-1
1615918568211407,-6,-2,9,7,-2,-1,2,-2
1615918568220016,-1,-3,-29,-19,-3,5,-3,-1
1615918568220016,0,-2,7,3,0,-5,-3,-3
1615918568234798,1,3,15,-3,-1,0,-1,2
1615918568234798,0,-7,-25,0,0,-6,2,-1
1615918568236463,0,2,9,2,0,8,-3,-1
1615918568236463,-5,-1,5,-8,-3,-6,2,-4
1615918568258024,2,1,10,3,-2,-6,-7,0
1615918568258024,-1,-1,11,3,0,3,6,-1
1615918568258945,1,-4,-24,-10,-1,-5,-13,-3
1615918568258945,-1,1,13,-14,-1,-1,0,-3
1615918568271526,1,0,13,4,2,4,0,1
1615918568271526,-1,2,17,29,-3,-7,0,-1
1615918568279823,-2,0,-6,-5,-3,0,7,1
1615918568279823,0,-3,-30,-5,0,0,-6,-2
1615918568295658,0,3,21,9,1,3,-7,-3
1615918568295658,-1,-4,-33,-32,-4,-5,2,0
1615918568297655,2,1,30,13,1,0,2,-1
1615918568297655,2,-1,9,17,0,2,-3,1
1615918568317896,-7,-8,-22,-7,-2,-1,1,-5
1615918568317896,0,-2,-25,-13,0,-2,-1,-1
1615918568318946,0,4,20,-15,-2,-9,0,0
1615918568318946,1,0,-2,16,0,5,3,2
1615918568330937,-2,-2,8,-4,-2,-4,-6,-3
1615918568330937,-1,-1,-6,-12,-2,3,7,3
1615918568340244,1,0,-1,16,-1,-3,8,1
1615918568340244,-3,-1,-3,-28,-1,3,-11,-1
1615918568362183,0,-1,16,27,2,0,1,1
1615918568362183,-1,1,16,-6,-2,0,-7,-2
1615918568364178,-3,-5,-29,-22,0,-2,7,2
1615918568364178,3,3,14,19,0,-1,1,0
1615918568385455,1,1,-5,2,-1,1,-4,0
1615918568385455,-4,-6,-10,-15,-1,-6,-2,-5
1615918568387262,-2,-2,-6,20,-2,2,-6,-2
1615918568387262,-2,-2,-15,-36,-6,1,0,-2
1615918568391252,2,3,21,16,-1,-3,-1,0
1615918568391252,-3,-2,-12,-4,0,6,2,-4
1615918568407389,3,1,-1,2,2,-1,9,3
1615918568407389,-3,-6,2,20,-2,-1,-16,-4
1615918568414267,0,2,4,-5,-1,-3,2,1
1615918568414267,0,-1,-4,-10,-2,-5,-3,0
1615918568428417,-1,1,6,1,1,5,0,-2
1615918568428417,-2,-2,-2,-15,-3,-3,7,0
1615918568438036,1,0,-1,7,0,3,-3,-1
1615918568438036,-1,-1,7,10,-1,-3,-5,0
1615918568439681,-2,1,5,-4,-2,-5,-3,-2
1615918568439681,0,-5,-25,-6,0,-1,0,-1
1615918568459728,-2,-3,-14,-12,-5,0,-4,-2
1615918568459728,1,1,-5,-10,0,-1,-2,-2
1615918568461338,-2,-3,3,17,-1,8,0,-1
1615918568461338,-5,-5,-25,12,0,-8,-1,-3
1615918568475730,0,1,-14,-1,0,-4,6,1
1615918568475730,-1,0,12,-1,-1,1,-11,0
1615918568476727,-5,-7,-35,-33,-2,-8,-6,-4
1615918568476727,1,3,31,10,0,4,4,1
1615918568497860,-5,-6,-14,2,0,-4,-2,-4
1615918568497860,5,3,-1,17,2,5,15,3
1615918568498857,-2,-4,-17,-25,-1,0,-14,-2
1615918568498857,0,1,10,-1,0,-5,0,-2
1615918568519716,2,-2,-11,-4,-3,-3,1,0
1615918568519716,0,-3,-23,-20,-2,-7,-2,1
1615918568521714,0,4,26,48,1,1,3,3
1615918568521714,-2,-3,-11,-6,-2,0,-2,-3
1615918568535512,0,1,6,-16,-1,0,-5,-1
1615918568535512,-1,-1,11,9,1,1,-1,-1
1615918568536486,0,-5,-22,-17,-1,1,8,1
1615918568536486,-1,-1,11,14,0,-3,-7,-1
1615918568557428,-2,2,1,-15,-2,1,1,-2
1615918568557428,1,-1,-7,-6,-2,-5,-6,1
1615918568559423,-2,-1,5,-2,-1,3,-2,-3
1615918568559423,3,4,24,3,0,-2,6,1
1615918568579648,0,-2,0,7,0,2,-2,-2
1615918568579648,-2,0,20,5,-1,-2,-1,-1
1615918568581642,1,-2,-22,-9,0,6,3,1
1615918568581642,-1,1,5,2,1,7,-2,-1
1615918568594710,-4,-4,-16,-10,0,-10,-3,-2
1615918568594710,0,4,19,27,1,-6,4,-1
1615918568601692,-2,-1,-3,-26,-2,-2,-7,-1
1615918568601692,-2,-3,-6,8,0,3,4,0
1615918568617738,-2,-3,1,5,1,4,-1,-2
1615918568617738,-1,1,-14,-9,-3,-1,3,0
1615918568618801,-2,-2,8,-4,0,-3,6,-2
1615918568618801,-4,0,10,-8,-2,-8,-23,-5
1615918568640679,-2,1,19,18,1,3,2,-1
1615918568640679,-1,-6,-16,-9,0,-1,-4,1
1615918568641675,1,5,15,5,-3,-1,1,-1
1615918568641675,0,-1,-11,6,-3,-5,6,0
1615918568654663,-1,-5,-11,-15,-1,-1,-3,0
1615918568654663,0,4,17,35,2,5,-3,1
1615918568661644,0,-2,-12,-16,-2,-8,-6,-2
1615918568661644,-3,-4,-21,-21,-2,-1,4,-1
1615918568677503,3,4,31,28,0,-2,0,2
1615918568677503,2,1,3,-16,-1,1,5,2
1615918568679472,-4,-5,-4,7,0,6,6,-2
1615918568679472,1,3,2,-10,-2,-5,-22,0
1615918568699595,0,-5,-22,-14,0,-7,7,0
1615918568699595,-3,-3,-12,7,-2,-1,-14,-3
1615918568706596,2,4,16,13,-1,-1,4,1
1615918568706596,0,-2,-11,-12,0,5,6,1
1615918568714703,-1,-1,-18,-37,-2,-2,-3,0
1615918568714703,-3,-4,7,35,-1,-5,-1,-4
1615918568728506,0,-1,-12,-22,-2,-6,-8,-1
1615918568728506,-2,-1,-9,-5,-3,1,3,-2
1615918568737821,0,4,27,14,1,0,-1,-1
1615918568737821,-1,-2,-2,-22,-1,-2,3,0
1615918568738823,-4,-5,-15,5,0,-3,-5,0
1615918568738823,1,5,75,20,2,3,7,0
1615918568760530,1,-1,-34,-9,0,1,-2,4
1615918568760530,-1,-3,3,0,0,3,6,-1
1615918568761430,1,1,15,12,-1,-2,-14,0
1615918568761430,-2,-4,-29,-9,-2,-4,1,-1
1615918568774418,-5,-2,-7,15,0,0,-1,-4
1615918568774418,0,2,5,-9,-1,0,-1,-1
1615918568781691,0,-5,-20,-3,1,3,7,1
1615918568781691,2,2,4,-18,0,-1,1,-1
1615918568797685,0,-2,9,16,1,-1,2,-1
1615918568797685,-2,0,-19,-24,0,0,-11,-3
1615918568799679,-2,1,22,21,1,-1,2,0
1615918568799679,-2,-4,-12,-3,0,5,1,2
1615918568820663,-1,-5,20,3,-3,-1,-2,0
1615918568820663,1,1,-2,1,-3,-6,2,0
1615918568821665,2,2,19,10,-1,6,-1,0
1615918568821665,-3,-3,-19,-5,0,-8,-4,-3
1615918568833703,-3,-3,-15,-11,-5,-2,-3,-4
1615918568833703,-1,-3,-8,2,0,5,7,0
1615918568842704,-2,2,-4,-16,-1,-5,-18,-3
1615918568842704,-2,-4,-4,20,-1,-3,2,2
1615918568857661,-5,-6,-17,-6,-1,0,-7,-4
1615918568857661,1,3,13,-11,-1,-2,3,1
1615918568859632,-1,0,-5,4,-2,-4,8,0
1615918568859632,-2,-2,-17,-5,-1,1,-1,-5
1615918568879797,0,4,17,-7,0,-1,-5,0
1615918568879797,-4,-3,18,15,0,0,-4,-1
1615918568881792,-2,-1,1,8,-2,-3,1,-1
1615918568881792,1,1,-5,-16,-3,3,2,0
1615918568893542,1,-1,13,0,0,-3,2,2
1615918568893542,-1,-5,-30,1,-2,-6,6,-2
1615918568902518,-2,-2,4,9,-2,6,-10,-1
1615918568902518,-3,-3,-12,-2,0,3,9,0
1615918568918045,2,2,-1,-7,-1,-3,-5,2
1615918568918045,1,2,12,5,1,3,-1,0
1615918568918898,-1,-2,-10,-12,-1,-2,6,-1
1615918568918898,0,1,-14,1,-1,3,-4,-1
1615918568940329,-2,-2,0,-11,-2,-10,2,-1
1615918568940329,-2,-3,27,18,0,2,-3,-1
1615918568942326,-1,1,3,-8,-1,-1,2,0
1615918568942326,-1,0,3,-5,0,-1,-1,-2
1615918568953293,-2,-3,-1,-7,-2,0,-2,-4
1615918568953293,0,4,7,0,-1,-1,-4,1
1615918568962294,-1,-4,-9,15,2,-1,3,-3
1615918568962294,2,2,21,13,1,-2,-1,1
1615918568985485,-4,-7,-23,-8,-3,-5,-2,-4
1615918568985485,0,-1,1,-8,0,3,5,0
1615918568986484,-2,-2,-13,5,0,-3,-18,-2
1615918568986484,3,0,-11,-17,-2,-1,2,3
1615918569007341,1,3,24,23,0,-1,0,1
1615918569007341,-4,-8,-22,-15,-6,0,-2,-3
1615918569009462,1,4,11,0,1,-1,4,1
1615918569009462,-3,-4,-16,-19,-2,-4,2,-2
1615918569013454,0,0,17,14,2,5,-6,2
1615918569013454,-2,3,-10,11,0,-1,0,-1
1615918569022531,0,-4,3,1,-1,-3,4,0
1615918569022531,-1,-4,-9,-6,2,0,-2,0
1615918569037216,2,2,-8,-5,-1,1,3,-1
1615918569037216,0,-1,-9,-7,-1,0,-5,-2
1615918569039185,-2,1,16,1,-1,-1,0,0
1615918569039185,-2,-1,10,14,0,-1,0,0
1615918569060322,-1,1,-3,-4,0,-2,3,0
1615918569060322,-1,-4,-17,-12,2,4,-3,-1
1615918569061317,0,1,28,-1,-3,-8,-6,-3
1615918569061317,-2,-3,-1,-3,-2,-2,0,-1
1615918569073282,-1,-2,-25,19,1,3,-1,0
1615918569073282,1,4,22,4,1,0,6,3
1615918569082813,-3,-4,-5,-15,-1,4,2,-3
1615918569082813,-2,-2,-12,6,-3,-2,-2,-1
1615918569097409,0,0,1,-22,-4,-9,-1,-3
1615918569097409,-2,-1,-10,10,-2,-1,-4,-1
1615918569099403,-3,-2,-6,-10,-1,0,0,-1
1615918569099403,-1,4,35,5,-1,-3,-4,0
1615918569120559,-1,-2,-1,10,4,5,1,-1
1615918569120559,-1,-2,5,0,0,-7,2,-2
1615918569121559,0,-2,-6,-8,-2,3,-4,0
1615918569121559,0,2,-1,5,-1,-3,2,-4
1615918569134019,0,-1,-4,-12,-4,-4,-1,-2
1615918569134019,-1,-5,-31,10,-2,-2,-1,-1
1615918569142941,0,2,18,7,2,2,9,0
1615918569142941,-1,-3,-8,-7,1,-6,-16,0
1615918569157894,-3,-3,-13,0,-3,5,3,-3
1615918569157894,-4,-7,-19,-34,-3,-2,-5,-4
1615918569158892,1,-3,-9,7,-3,-3,4,1
1615918569158892,-2,-1,-5,18,0,0,-1,-2
1615918569180820,4,4,-1,-9,2,10,-3,3
1615918569180820,0,-1,-7,-5,2,-10,-2,0
1615918569182844,-2,-2,-4,5,0,2,1,-3
1615918569182844,0,-3,6,-2,-1,-4,-3,-1
1615918569194097,-2,-5,-5,2,0,1,1,-1
1615918569194097,-2,-2,-17,-16,-3,1,-4,-2
1615918569203073,1,2,6,9,-1,4,7,3
1615918569203073,-3,-6,-30,-21,-1,-10,-19,-4
1615918569218033,0,7,69,35,1,4,12,1
1615918569218033,-3,-1,-1,-15,-2,-7,-15,-2
1615918569219030,-1,1,4,8,-3,-12,-4,-1
1615918569219030,-3,-2,-1,-3,-1,8,6,-2
1615918569239893,-3,-4,-21,-26,-3,-2,-7,-2
1615918569239893,1,-1,16,6,0,1,4,2
1615918569241889,1,5,33,19,2,0,-2,-1
1615918569241889,2,0,-8,7,-2,-1,3,-1
1615918569253857,0,-5,-23,-2,-4,-4,-3,1
1615918569253857,2,2,33,9,-1,-6,3,1
1615918569262700,-4,-6,-39,-22,-3,2,1,-1
1615918569262700,0,1,16,-7,0,-2,-6,-2
1615918569278019,-2,-4,-17,1,0,2,3,-1
1615918569278019,-1,-1,16,4,0,-4,-1,-3
1615918569279691,1,-2,-13,-4,2,3,-1,-2
1615918569279691,0,-2,-2,-20,-4,0,8,1
1615918569307641,-3,-2,0,12,0,-5,-6,-2
1615918569307641,0,4,2,5,0,8,9,0
1615918569309634,2,0,4,-7,-2,-4,-13,1
1615918569309634,-3,-4,-25,12,-2,4,5,-1
1615918569313386,-3,0,7,-3,-3,-6,-6,-4
1615918569313386,0,-1,-6,-19,1,2,7,0
1615918569322337,-1,-4,-11,5,-2,-5,0,-1
1615918569322337,-1,1,14,-7,-2,1,-6,-2
1615918569337350,-1,-1,23,13,-1,-1,1,0
1615918569337350,-1,1,-16,-11,-2,-1,-5,0
1615918569339345,-2,-4,-6,4,-2,-2,2,-3
1615918569339345,-4,-3,0,6,0,0,3,0
1615918569360652,0,4,3,-9,0,-4,-4,-1
1615918569360652,0,-1,2,-5,-1,5,-1,-1
1615918569361652,-1,-3,-20,-10,-1,-3,-2,1
1615918569361652,-3,-2,10,7,-1,3,3,-2
1615918569382768,-1,-4,-24,-5,-1,-2,-4,-3
1615918569382768,1,1,1,2,-2,2,-1,0
1615918569384758,-1,-1,-1,-6,0,3,1,0
1615918569384758,-1,-2,-3,14,-2,-9,-1,-1
1615918569405488,1,-2,-12,-16,-1,2,0,-2
1615918569405488,0,-1,-6,-5,-1,-3,-6,-1
1615918569406482,-1,5,36,23,-1,0,-3,-3
1615918569406482,1,-1,-24,-22,-1,2,5,2
1615918569427524,-3,-2,1,6,0,-2,-2,-1
1615918569427524,-4,-3,9,-9,-2,0,-2,-2
1615918569429465,-3,3,28,30,0,-7,-2,0
1615918569429465,-2,-4,-10,-7,-1,-1,-1,-3
1615918569442429,-1,0,-5,-18,0,1,2,1
1615918569442429,-3,-1,2,25,-1,-6,-5,-3
1615918569444424,-2,-6,-1,-24,-1,3,9,-1
1615918569444424,0,1,-8,13,0,-3,-11,-3
1615918569457392,-2,-1,19,8,-2,-13,-11,-1
1615918569457392,-3,-4,-3,5,0,0,-3,-1
1615918569459895,0,-3,-25,-2,1,0,-1,0
1615918569459895,2,6,31,15,1,3,9,2
1615918569479705,-5,-3,-27,-27,-2,1,-1,-7
1615918569479705,2,2,-3,1,1,-3,0,2
1615918569481699,1,2,0,22,1,-2,-1,0
1615918569481699,0,-2,-8,-21,-1,1,-1,1
1615918569502715,-3,-5,-9,-9,-2,-3,1,-2
1615918569502715,-3,-2,8,26,-1,3,1,-3
1615918569504677,0,-2,-18,-28,-2,0,1,-1
1615918569504677,1,-2,-1,-2,0,-7,7,3
1615918569516663,0,1,6,9,-2,-8,-22,-2
1615918569516663,0,-3,-10,-7,0,-3,1,0
1615918569523624,-1,-2,-17,-16,-3,5,-2,-1
1615918569523624,-2,-1,-7,-6,-2,-1,1,-1
1615918569540538,1,3,29,25,0,6,17,4
1615918569540538,-3,-4,-11,-14,-2,-12,-20,-5
1615918569542533,-1,-3,-21,-13,-1,1,-3,-1
1615918569542533,0,3,15,1,1,0,1,-1
1615918569562531,-1,-1,2,1,-3,2,2,0
1615918569562531,-2,-4,-8,-12,-1,5,2,-1
1615918569564531,0,4,34,25,0,-5,-1,-1
1615918569564531,-2,-3,-7,-7,-1,0,-7,-2
1615918569585447,2,0,-7,-5,0,6,6,0
1615918569585447,0,3,18,0,1,1,5,2
1615918569586444,-1,-3,-2,-8,-3,-8,-6,-1
1615918569586444,-3,-6,-24,-3,-1,7,7,-1
1615918569600546,-1,1,9,12,1,-9,-21,-1
1615918569600546,0,5,11,-2,-3,5,6,1
1615918569601548,1,-2,-11,-16,-1,1,0,1
1615918569601548,-3,-1,2,32,-1,-11,-3,-3
1615918569622689,3,2,-12,-21,-1,8,9,1
1615918569622689,-1,-3,-7,-6,-2,1,-3,-1
1615918569624684,-3,-2,9,-2,-1,1,-1,1
1615918569624684,0,-1,23,11,-2,-4,0,0
1615918569637508,-3,-4,-26,-18,-2,-7,2,-2
1615918569637508,2,-1,30,24,0,-4,-4,0
1615918569643517,0,2,-33,-36,-3,1,5,-2
1615918569643517,-3,-3,2,10,-2,-5,-16,-4
1615918569660544,1,2,7,-1,1,2,2,2
1615918569660544,-4,-7,-33,-8,-6,-3,-2,-2
1615918569661522,-2,-1,14,3,0,1,0,0
1615918569661522,1,3,19,11,-1,1,1,0
1615918569682680,-3,-5,-10,-5,-3,-2,5,-4
1615918569682680,1,2,-10,-4,1,4,11,3
1615918569684674,-5,-1,2,5,-4,-5,-19,-5
1615918569684674,0,-3,-7,-14,-1,3,3,-1
1615918569696640,-1,2,8,6,-2,-10,-2,-1
1615918569696640,0,-3,-6,10,0,2,5,-2
1615918569703621,0,-3,-19,-13,-1,-4,3,0
1615918569703621,0,5,13,5,2,5,-3,0
1615918569720577,0,-3,-10,-3,-1,1,0,0
1615918569720577,-1,0,-13,-26,0,-3,-4,0
1615918569721574,-2,-4,18,36,-4,-4,-4,-3
1615918569721574,-1,-2,-8,-16,-3,-5,2,2
1615918569742618,-1,-1,1,26,0,4,0,1
1615918569742618,-4,-3,-2,-18,-1,-3,-5,-3
1615918569744608,3,0,10,2,5,7,-1,1
1615918569744608,1,1,-13,0,-1,4,5,1
1615918569756553,-2,-5,12,-4,-3,-5,7,-2
1615918569756553,2,6,29,18,0,-4,-31,-2
1615918569763563,-2,-5,-28,-21,-2,-3,2,-2
1615918569763563,0,0,10,-11,0,8,-2,-1
1615918569779752,3,3,6,22,-1,-12,5,1
1615918569779752,-3,-4,-17,-14,-2,2,3,-3
1615918569781722,2,3,12,20,-1,0,3,2
1615918569781722,-1,-2,-1,-13,-2,2,-4,-2
1615918569802734,-1,-4,-32,-36,-2,0,-4,0
1615918569802734,1,9,70,37,-1,-2,3,1
1615918569804768,-3,-1,-9,14,0,0,-2,-2
1615918569804768,-2,-4,-14,-11,-2,-1,6,0
1615918569816725,-3,-4,-10,-15,-3,-2,-3,-1
1615918569816725,-2,0,7,-5,-2,-5,-8,-2
1615918569823739,-1,3,3,12,0,3,5,1
1615918569823739,-2,-1,6,9,0,-4,-4,-3
1615918569840670,-3,-2,-12,-14,0,8,4,-1
1615918569840670,0,-1,-29,-9,1,-4,10,1
1615918569841691,-1,-2,-4,8,-1,0,-15,-1
1615918569841691,-2,0,2,-12,-5,-11,-1,-1
1615918569862612,0,2,-1,-1,2,1,-3,-3
1615918569862612,1,-2,-12,7,2,7,5,1
1615918569864606,-1,-1,5,-7,-2,-4,0,0
1615918569864606,-1,-4,-26,-12,-2,-6,-5,-1
1615918569875829,1,0,10,9,0,3,-5,-1
1615918569875829,0,-2,-14,-10,-3,-4,3,-1
1615918569885764,0,-3,3,-1,-3,2,11,-1
1615918569885764,0,-1,-5,-6,1,6,1,0
1615918569899703,-3,1,13,5,1,-4,-11,-1
1615918569899703,-1,-3,-25,-7,-2,-1,3,0
1615918569901674,-3,-3,-1,12,-2,-11,-7,-1
1615918569901674,0,2,4,0,-1,0,3,-2
1615918569922761,-1,-5,-15,-8,-2,5,0,0
1615918569922761,0,1,19,12,1,-2,-5,-2
1615918569924751,3,1,1,-18,0,3,5,3
1615918569924751,-2,-1,-5,5,-1,-3,-3,-1
1615918569936718,-1,2,10,8,-2,3,-2,0
1615918569936718,-1,-3,-25,-22,-5,-4,-3,-1
1615918569945667,-3,-2,26,6,0,-2,4,-4
1615918569945667,-1,0,3,16,2,3,-4,1
1615918569959631,0,1,5,-1,-1,-5,-2,0
1615918569959631,1,0,27,1,0,3,1,0
1615918569961625,-3,-1,-26,8,-2,-5,4,-3
1615918569961625,1,0,-3,3,1,2,-12,0
1615918569982716,-2,0,9,2,1,3,0,-3
1615918569982716,-1,-4,-12,9,2,-4,2,-2
1615918569984715,1,0,-32,-32,0,2,2,-1
1615918569984715,0,1,23,13,0,-2,3,-1
1615918569996756,1,-1,7,5,-1,-5,-4,1
1615918569996756,-5,-3,-15,-4,-1,2,-4,0
1615918570005728,0,-2,8,-2,-4,1,0,2
1615918570005728,-3,-3,-10,-9,-1,-1,1,-3
1615918570019677,-3,-4,-3,4,-1,-4,-1,-2
1615918570019677,-1,2,4,2,-2,1,0,-1
1615918570021697,1,2,21,-31,1,-2,-4,-1
1615918570021697,-1,0,30,33,0,-3,-3,-2
1615918570050707,1,3,5,3,0,3,6,1
1615918570050707,-3,-4,-13,-1,-1,3,7,-3
1615918570051701,-2,-2,-7,-17,-2,-5,-22,-4
1615918570051701,0,-3,-1,-5,-2,-8,0,-2
1615918570056705,-1,-2,-19,-10,-5,-6,0,-1
1615918570056705,0,-3,1,1,-1,2,3,0
1615918570072644,-4,-1,-12,-10,1,6,2,-2
1615918570072644,3,5,21,25,2,0,3,3
1615918570079625,-1,-3,-8,-9,-5,-10,-2,-2
1615918570079625,-1,-2,-29,-10,1,-2,-3,-2
1615918570081619,0,2,39,19,-2,0,-3,-1
1615918570081619,-3,-3,-27,-24,-3,2,-2,-2
1615918570102724,-1,-3,17,9,4,3,0,0
1615918570102724,0,4,7,-10,-2,-6,-2,0
1615918570104731,-1,-3,-14,3,-1,4,-1,-1
1615918570104731,0,-1,-5,-6,-3,-4,1,0
1615918570117120,-1,3,21,16,1,2,-1,0
1615918570117120,-1,-3,-12,-16,-1,3,4,0
1615918570125097,0,1,7,12,1,-2,5,-2
1615918570125097,0,-1,13,11,1,-6,-8,0
1615918570140539,0,-4,-15,6,0,5,-1,-1
1615918570140539,-4,0,21,11,-2,-2,-4,-1
1615918570142557,1,-2,-36,-16,3,-3,7,0
1615918570142557,-1,2,31,16,0,3,1,-1
1615918570162485,0,0,-9,0,-1,2,6,0
1615918570162485,1,-3,3,8,-2,-9,-11,-1
1615918570164480,-5,-4,-8,-9,-3,-3,-3,-3
1615918570164480,-1,0,-25,-13,0,0,-3,-2
1615918570176384,1,2,19,-4,1,6,1,2
1615918570176384,2,4,9,6,0,-3,1,1
1615918570185363,-1,-5,-21,-3,-3,3,-2,2
1615918570185363,-2,-3,-17,-13,-1,0,-3,-4
1615918570200610,-2,1,-15,15,-1,-9,0,0
1615918570200610,1,-2,6,1,0,3,2,0
1615918570201609,-2,-3,10,0,-2,-10,-1,-2
1615918570201609,-5,-4,-39,-45,-4,6,7,-3
1615918570222748,-1,0,19,16,0,5,-2,0
1615918570222748,-1,0,-12,11,1,-3,-15,-5
1615918570224749,-1,1,9,-5,1,-1,2,-1
1615918570224749,0,-2,4,-6,-1,-3,0,1
1615918570236676,-3,-7,-24,-12,-3,0,0,-3
1615918570236676,0,5,14,-21,0,-5,2,3
1615918570245628,2,3,38,35,0,4,-1,-1
1615918570245628,-2,-5,-12,-5,-1,-5,-2,-4
1615918570260587,0,1,-16,-16,0,1,-4,1
1615918570260587,-1,-4,0,10,3,3,1,-1
1615918570261586,0,-2,-2,13,-1,-2,5,0
1615918570261586,1,1,11,16,0,-2,-2,3
1615918570282607,-2,2,16,-12,-2,3,-2,-2
1615918570282607,-3,-1,-15,-6,-2,1,6,-2
1615918570284600,-2,-2,-5,-9,-2,4,-7,0
1615918570284600,1,-1,-23,-1,1,-3,-1,-2
1615918570296286,0,2,17,-5,1,-1,0,-2
1615918570296286,2,0,8,3,-2,-8,-1,1
1615918570305261,-1,3,-4,3,0,1,6,1
1615918570305261,-3,-4,3,-1,-2,4,-2,-1
1615918570328195,-2,-2,0,-8,-1,-2,-6,-2
1615918570328195,-3,-1,1,-3,-1,-4,2,-2
1615918570329193,5,3,6,4,3,1,-2,3
1615918570329193,-3,-4,2,10,-2,1,-1,-1
1615918570349761,0,3,-3,10,-3,-5,-1,-1
1615918570349761,-3,-6,-29,-28,-3,5,2,-2
1615918570351756,-1,1,27,12,1,-4,-8,-3
1615918570351756,0,-2,-19,-20,-2,-4,0,-1
1615918570372338,-1,-4,18,14,0,-7,-4,-1
1615918570372338,-2,-2,-9,-3,-2,8,6,0
1615918570374334,-2,-2,-3,-20,-1,4,-8,-4
1615918570374334,1,5,14,-7,-2,-5,-1,-1
1615918570380666,0,-3,8,32,2,3,4,-1
1615918570380666,-1,0,11,7,-1,1,-9,-3
1615918570381665,-1,-3,-17,-32,-3,-6,3,0
1615918570381665,1,3,35,35,0,-2,1,1
1615918570402772,2,-1,-6,-6,0,0,0,1
1615918570402772,-2,0,9,1,-1,0,0,-1
1615918570404744,-4,-4,-15,-12,-6,-12,-4,-5
1615918570404744,-1,-3,-12,-12,-1,0,-1,0
1615918570424908,-4,-6,-32,-3,-1,0,-2,-1
1615918570424908,2,0,3,8,1,1,2,1
1615918570426798,-1,-2,-11,-8,-4,-8,3,-1
1615918570426798,-2,-2,-12,-20,1,-2,-20,-4
1615918570439691,-4,-2,13,-13,-2,1,4,-3
1615918570439691,-1,1,20,47,2,0,-5,-3
1615918570446672,1,-1,-23,-3,2,-4,5,1
1615918570446672,-2,-2,2,-3,-2,4,7,-1
1615918570462630,-1,0,-6,-13,-3,-1,-6,-1
1615918570462630,-4,-8,-12,-12,-5,-4,-4,0
1615918570464625,1,6,39,19,3,6,0,1
1615918570464625,2,1,-2,22,2,5,10,3
1615918570484916,0,-3,-32,-32,-2,2,-17,-3
1615918570484916,-2,4,27,7,-4,-16,-2,-2
1615918570486538,0,0,-10,16,-1,8,-3,-1
1615918570486538,-2,-3,-10,-14,0,-2,1,-1
1615918570499505,1,1,4,-1,-1,-4,8,2
1615918570499505,-2,-7,-18,-7,-1,2,5,-1
1615918570506748,0,4,24,5,1,-1,-22,-1
1615918570506748,2,1,5,5,1,-1,1,-1
1615918570522736,-3,0,-23,3,-3,-4,0,-4
1615918570522736,0,-3,-12,-1,0,1,1,1
1615918570524824,0,-2,24,9,0,0,3,-1
1615918570524824,0,0,-3,-8,-1,1,-1,-2
1615918570545664,-3,-3,0,17,0,-4,-2,-2
1615918570545664,0,-1,-8,-10,0,5,-1,-1
1615918570546661,-3,-3,-13,-17,-2,-2,2,0
1615918570546661,-2,-1,-4,5,-4,-6,-4,0
1615918570559650,-1,-1,-1,-15,1,-2,2,-1
1615918570559650,0,-1,-3,1,2,9,-4,-2
1615918570566631,0,-1,0,-18,-2,-4,10,2
1615918570566631,1,2,25,33,-3,-12,-16,-2
1615918570582569,0,-2,1,-11,-2,1,1,3
1615918570582569,-1,-4,-9,-2,-1,2,1,-2
1615918570584558,-3,-6,-30,-5,-1,4,3,-4
1615918570584558,-2,1,-3,-9,1,-5,-1,0
1615918570605705,0,0,21,5,-3,0,2,-1
1615918570605705,1,3,20,14,2,3,-2,2
1615918570606689,-4,-7,-33,-19,-4,0,-4,-1
1615918570606689,-3,-3,-7,-3,0,1,2,-2
1615918570619652,1,0,-16,-6,0,0,-6,1
1615918570619652,0,-2,-6,-8,-2,-4,2,0
1615918570626657,0,-3,-8,-19,-3,0,-1,-3
1615918570626657,0,-1,27,34,2,0,-2,0
1615918570642775,4,4,3,-4,-1,4,2,1
1615918570642775,-3,0,-4,7,-4,-11,3,-3
1615918570644753,2,2,11,15,0,-4,-16,-2
1615918570644753,-2,-2,-7,-13,-3,3,1,-1
1615918570672699,-4,-5,4,-14,-2,0,-2,-2
1615918570672699,2,3,-3,10,2,1,1,1
1615918570674694,1,3,0,4,1,4,7,3
1615918570674694,1,-1,13,5,2,2,-3,-1
1615918570679657,0,-2,-22,-10,0,-1,-2,-3
1615918570679657,0,-2,-1,-29,-3,-5,7,1
1615918570693697,-3,-4,-19,11,-1,-1,-7,-2
1615918570693697,-1,0,-3,-7,-1,2,3,-2
1615918570702672,0,-2,13,-10,-1,-3,0,0
1615918570702672,2,6,30,21,2,1,-4,0
1615918570704665,-3,-4,6,-7,-2,-1,3,-2
1615918570704665,0,2,2,-4,-2,-3,3,1
1615918570725629,-1,0,10,11,1,-1,-2,-1
1615918570725629,-2,-3,0,10,-1,8,0,0
1615918570727253,-2,-1,-14,-9,-3,-7,3,-2
1615918570727253,-3,-3,-6,-7,-2,-8,-13,-4
1615918570739708,-1,0,-8,-1,-2,-2,1,0
1615918570739708,-1,-3,-15,-28,-3,1,-4,-1
1615918570746683,-1,1,22,24,0,5,2,0
1615918570746683,-2,-4,-17,-27,-4,-1,5,0
1615918570762639,0,0,-9,35,-1,-3,-6,-3
1615918570762639,-2,-2,-10,-26,-2,-5,-4,-4
1615918570764633,1,-1,4,1,2,-2,-1,-1
1615918570764633,1,0,1,-1,-1,2,0,2
1615918570785381,-2,-5,-10,-8,-1,-2,-3,-1
1615918570785381,-3,-4,-19,-5,-2,1,-1,-1
1615918570787379,0,-2,3,-3,-1,-5,-3,0
1615918570787379,3,9,36,34,2,3,1,0
1615918570800078,-5,-2,-4,-11,-2,-1,-1,-3
1615918570800078,-1,0,3,4,0,-3,-2,0
1615918570806064,0,-2,-13,-15,-1,6,8,0
1615918570806064,-1,-4,-20,-11,-1,5,3,-2
1615918570822371,-1,0,4,-2,-1,-7,-13,-5
1615918570822371,1,0,8,9,1,-5,-3,-1
1615918570824385,-5,-4,-12,-18,-2,1,0,-3
1615918570824385,0,0,13,4,-1,-3,8,2
1615918570845697,0,1,32,15,-2,-2,1,1
1615918570845697,0,0,-5,0,-3,0,-4,-3
1615918570846695,1,-3,-24,6,1,0,1,2
1615918570846695,-3,-1,1,-5,-3,-2,-3,-3
1615918570858682,1,1,-4,-15,0,0,0,1
1615918570858682,-1,-2,3,3,0,-5,-5,-2
1615918570867638,0,1,19,23,0,-2,-2,-2
1615918570867638,-1,-6,-20,-16,-3,-3,-3,-1
1615918570882820,-1,1,-4,8,0,-1,5,1
1615918570882820,-5,-1,5,-16,-2,-1,-1,-3
1615918570883820,0,2,-5,16,0,-4,-3,-1
1615918570883820,-4,-8,-29,-14,-2,1,-2,-4
1615918570905055,1,4,-1,5,0,1,2,1
1615918570905055,0,-2,-9,-12,-4,2,6,1
1615918570906939,-1,-3,-8,-6,-1,-5,-5,1
1615918570906939,1,1,4,14,3,4,-3,0
1615918570919061,-2,0,0,-3,0,0,3,1
1615918570919061,-2,-4,-9,5,-2,-8,-5,-1
1615918570927919,-1,0,-3,-31,-3,8,3,-3
1615918570927919,-1,1,32,34,-1,-1,9,2
1615918570949800,1,-2,-9,-3,-1,-3,-7,-2
1615918570949800,-2,-1,-17,-9,0,-1,0,0
1615918570951768,2,4,17,-5,0,-1,-3,0
1615918570951768,0,-1,-1,-5,-1,-1,0,-3
1615918570964874,0,-4,0,14,0,8,3,3
1615918570964874,0,-4,-5,-6,-1,-8,-1,-1
1615918570971851,-3,-4,-17,-15,-3,-1,-3,-2
1615918570971851,2,1,-2,-5,-2,-1,-3,3
1615918570978394,-1,-1,-8,-9,-2,-1,7,0
1615918570978394,3,2,8,8,0,4,7,4
1615918570988359,-3,-1,6,11,-2,-4,-19,-3
1615918570988359,-1,-3,-17,-14,2,-3,2,0
1615918571002447,-1,0,4,-6,-3,0,-3,-4
1615918571002447,-2,-5,-1,7,-1,-2,-3,-2
1615918571004444,2,3,9,17,1,1,6,2
1615918571004444,-2,-11,-38,-46,-4,-3,-4,-2
1615918571025536,0,8,36,43,5,-2,1,-1
1615918571025536,0,0,-13,-21,2,6,-4,0
1615918571027375,-1,-1,13,32,0,-4,-1,-1
1615918571027375,-3,-1,-20,-16,-3,-6,3,-2
1615918571039332,-1,-2,1,-23,-2,-1,-12,-1
1615918571039332,-2,2,27,25,-1,-1,-5,-2
1615918571048241,0,-2,-13,-10,1,0,1,0
1615918571048241,1,2,-2,-10,0,7,6,2
1615918571062325,-3,-3,4,-2,1,-2,7,-3
1615918571062325,-2,2,18,-2,-1,-6,-23,-3
1615918571064322,-2,-1,4,4,-3,1,4,0
1615918571064322,-1,-1,2,7,-2,-6,-3,-2
1615918571092896,0,1,6,0,-2,0,6,-2
1615918571092896,-1,-5,-23,-5,-2,1,4,-1
1615918571094890,-1,-2,13,0,1,-4,-3,0
1615918571094890,0,2,-9,-3,-1,7,0,-2
1615918571098880,-3,-8,-18,-12,-1,-4,-5,-3
1615918571098880,-1,3,8,10,-1,-6,2,0
1615918571107456,-1,-1,-10,-14,-1,1,2,-1
1615918571107456,-1,3,14,6,0,0,-3,-2
1615918571122694,-1,-5,-34,8,-1,-5,1,1
1615918571122694,0,-1,5,-9,0,2,8,-1
1615918571124691,-1,1,9,4,-1,0,1,-1
1615918571124691,1,-1,-21,-33,-3,-1,-10,0
1615918571144826,-4,0,14,32,-1,-1,8,-2
1615918571144826,-1,-3,1,3,-3,-5,-12,-3
1615918571146794,-1,0,-7,-6,-3,0,5,0
1615918571146794,-1,-3,12,-5,-3,1,0,-1
1615918571158922,1,1,4,-3,0,4,0,0
1615918571158922,-3,-3,-14,-4,-2,-7,3,0
1615918571167951,0,3,13,-6,-1,-2,-1,-1
1615918571167951,-3,-3,-1,16,1,-5,-7,-2
1615918571182818,-2,1,20,-2,0,-4,-3,-3
1615918571182818,-1,-4,-14,-4,1,4,2,-1
1615918571184872,2,2,18,2,1,0,-1,1
1615918571184872,1,4,17,22,0,-1,4,1
1615918571206882,-2,-5,-31,7,-4,-8,2,-2
1615918571206882,-2,1,0,-22,-5,7,-13,-2
1615918571207800,0,0,-6,15,-1,-8,-2,-1
1615918571207800,0,3,21,9,-1,-2,0,-1
1615918571219368,-4,-5,-2,-32,-4,-2,2,-3
1615918571219368,-2,-2,2,20,1,1,2,-2
1615918571227632,-1,-2,0,-2,-1,-2,-2,-2
1615918571227632,0,2,4,-2,2,1,-1,1
1615918571241600,0,-4,-23,-17,-2,3,-6,0
1615918571241600,1,3,4,15,1,4,3,1
1615918571248606,-4,-5,-5,-29,-6,-11,2,-3
1615918571248606,-1,0,11,39,-1,-5,-11,-1
1615918571265589,0,2,-10,-3,0,2,-3,2
1615918571265589,0,-3,-12,-13,-1,1,10,4
1615918571266586,-3,-3,3,8,-2,1,-16,-4
1615918571266586,-2,-4,-10,-23,-4,-3,2,-2
1615918571278682,1,0,12,-1,-1,-2,-2,-1
1615918571278682,-3,2,21,31,0,2,5,-2
1615918571287530,0,-1,-18,-17,-2,-1,1,0
1615918571287530,-4,-3,-12,-11,-2,-1,-4,-2
1615918571302797,0,0,3,-9,-1,2,-2,0
1615918571302797,-1,0,4,-1,-3,-6,0,-2
1615918571304794,1,2,5,5,0,-1,-2,0
1615918571304794,-2,-3,-8,-2,-2,3,4,0
1615918571326489,0,-3,-7,1,1,2,3,-1
1615918571326489,0,-3,-9,0,-1,-4,-4,-1
1615918571331482,-2,-2,-18,9,1,4,0,-1
1615918571331482,-1,-3,-2,-2,-2,-1,2,0
1615918571347697,-1,1,-23,-47,0,-2,-2,0
1615918571347697,1,1,37,6,0,-2,-1,-1
1615918571349690,-2,3,26,48,1,2,-1,-1
1615918571349690,0,-3,-23,-23,-1,1,0,1
1615918571370465,-1,-2,-3,2,0,0,-2,-2
1615918571370465,1,-3,-1,1,-2,-1,0,0
1615918571371489,-4,-4,-8,-16,1,3,3,-2
1615918571371489,1,0,-4,-2,-4,-2,2,1
1615918571392654,-1,-2,13,8,-2,-3,-5,1
1615918571392654,0,2,-13,20,-1,0,0,0
1615918571395646,1,0,9,0,-1,-1,2,1
1615918571395646,0,2,1,-16,1,1,5,0
1615918571408238,-4,-4,5,37,0,-9,-1,-4
1615918571408238,-1,-2,-17,-38,-1,0,-7,-1
1615918571409028,1,-2,0,0,-2,1,1,-1
1615918571409028,-1,-1,3,-2,2,0,-2,-3
1615918571422063,1,2,2,1,-2,2,1,4
1615918571422063,1,-1,-20,-9,1,1,6,0
1615918571436802,-3,-4,-7,-9,-1,-3,-8,-1
1615918571436802,0,6,26,13,1,-4,-1,-3
1615918571445511,-3,-1,-4,0,-3,1,-4,-3
1615918571445511,-4,-2,10,-5,-2,-6,-1,-1
1615918571446538,1,0,-23,-10,0,1,1,1
1615918571446538,-3,-4,-3,0,-1,-2,1,-1
1615918571467474,1,-1,-2,-5,-1,-2,-7,0
1615918571467474,-2,1,20,15,1,0,-1,-1
1615918571469444,0,-3,-20,-26,-2,0,5,0
1615918571469444,-4,-2,23,10,0,-3,-4,-2
1615918571482508,2,4,12,30,1,3,0,2
1615918571482508,-1,-5,-15,-18,-4,-5,2,0
1615918571489680,-2,3,17,-5,-1,-5,-2,-2
1615918571489680,-2,-5,-26,-5,0,2,-2,-3
1615918571504845,-1,-1,15,8,-3,2,7,-1
1615918571504845,-2,2,6,-4,-3,-2,-18,-3
1615918571507383,-3,-3,-21,-5,1,0,1,-2
1615918571507383,1,0,-19,-13,-5,-3,-2,0
1615918571527857,1,0,21,7,-1,0,2,-2
1615918571527857,-1,-4,-21,-9,-1,2,2,-3
1615918571529855,3,1,2,11,-1,-2,-1,1
1615918571529855,-4,-4,-18,-15,-3,-1,-3,-3
1615918571549928,0,-2,-8,-2,2,1,-2,-1
1615918571549928,-3,-2,-5,6,-2,2,1,0
1615918571551913,-1,-6,-22,-16,-4,-12,3,-2
1615918571551913,1,5,32,10,-2,4,-12,1
1615918571565754,-1,-4,-19,-17,-3,-6,-7,-3
1615918571565754,-1,0,6,4,-1,3,3,0
1615918571566754,0,-1,9,-1,1,1,-1,1
1615918571566754,-1,-1,-14,-2,1,-1,4,0
1615918571587697,-2,1,20,4,-1,-2,-4,-2
1615918571587697,-2,-2,0,-21,-2,-2,6,-1
1615918571590701,1,4,35,42,2,3,-5,0
1615918571590701,-1,-2,-12,1,-1,-3,-2,-2
1615918571601672,-2,-1,-15,-12,-2,-5,-3,-1
1615918571601672,-1,-3,-8,-6,-1,0,-1,0
1615918571608558,-2,-2,-7,-10,1,5,3,-2
1615918571608558,1,0,15,15,3,-2,2,-1
1615918571625565,-1,-3,-18,-12,-1,2,-2,-1
1615918571625565,-2,2,17,10,1,0,-1,-2
1615918571626530,2,-1,-6,-4,-1,-2,-1,-2
1615918571626530,-4,-6,-34,-26,0,-2,-1,-1
1615918571647753,2,3,33,25,2,1,2,1
1615918571647753,0,-1,-6,-24,-4,-1,-3,0
1615918571649749,-1,-1,-3,15,-2,-4,-4,0
1615918571649749,-1,-1,27,11,1,3,10,3
1615918571661715,-1,-3,-19,-14,0,-1,-10,0
1615918571661715,1,-1,-13,-16,-2,0,0,1
1615918571668697,-1,-2,-2,0,1,7,3,1
1615918571668697,-1,0,8,10,-1,-2,-1,-1
1615918571685479,-3,-3,-4,-15,-5,-10,3,-3
1615918571685479,1,-2,-12,11,1,3,1,-1
1615918571686479,-4,-6,-15,-13,-3,-2,-3,-3
1615918571686479,3,5,-1,-1,-1,-3,5,0
1615918571707708,-4,0,16,7,-1,5,-2,-3
1615918571707708,0,-1,-10,-20,0,-5,-4,2
1615918571709733,-1,-3,8,6,0,0,4,0
1615918571709733,1,4,6,34,1,3,-4,1
1615918571721829,-1,-1,-17,5,-2,-2,-4,-1
1615918571721829,0,-1,26,4,1,-8,-2,-2
1615918571728475,0,3,-17,-20,-1,1,1,0
1615918571728475,1,-1,10,-16,-2,-5,1,2
1615918571745137,-1,-2,-13,7,-1,2,3,1
1615918571745137,-3,-2,4,16,0,0,-7,-3
1615918571747024,0,3,0,-5,0,-2,0,0
1615918571747024,-2,-4,-8,1,0,3,-2,-4
1615918571768239,-3,-3,-6,-18,-5,-4,6,0
1615918571768239,-1,0,24,1,-1,-4,0,-1
1615918571769702,0,-1,3,26,0,1,-7,-1
1615918571769702,-3,-2,-9,-23,-2,-1,-3,-3
1615918571781742,2,7,28,27,4,5,2,1
1615918571781742,-3,-4,-6,-2,-2,-2,-7,-3
1615918571790162,0,-1,3,-16,-3,-8,-2,-2
1615918571790162,-1,-2,1,5,0,-3,-1,-2
1615918571805755,-1,-6,-27,-19,0,-1,-4,-3
1615918571805755,0,2,2,7,1,0,1,0
1615918571806755,-1,0,9,6,1,2,4,-3
1615918571806755,-2,-6,-22,-13,-3,0,0,-3
1615918571828251,1,3,10,2,-1,-3,4,2
1615918571828251,-1,0,-2,13,0,-6,-14,-1
1615918571829681,-2,-3,12,-6,-2,1,-2,-2
1615918571829681,-1,-1,-13,13,-1,3,0,-3
1615918571841868,2,1,3,-11,0,-3,4,1
1615918571841868,-2,-6,-15,-5,2,2,3,-2
1615918571850721,0,8,50,32,-1,-2,-3,2
1615918571850721,-4,2,3,-10,-4,-10,-3,-2
1615918571864801,-2,-2,-2,-4,0,2,0,-1
1615918571864801,-2,-4,-20,3,-1,1,1,1
1615918571866773,-2,-2,-15,-39,-4,-4,-2,-1
1615918571866773,0,-4,-5,25,-1,6,2,1
1615918571888268,1,2,12,1,1,-4,-5,-2
1615918571888268,1,1,-17,-12,-3,0,3,-1
1615918571890701,-2,-3,-3,-9,0,-1,-3,-1
1615918571890701,1,2,16,17,2,-2,-1,0
1615918571901689,-4,-6,-26,-23,-4,-4,-3,-2
1615918571901689,-1,2,22,25,0,1,3,0
1615918571910666,-2,-3,-25,-15,-1,1,0,-1
1615918571910666,-1,-1,19,19,1,0,1,-1
1615918571925612,0,1,-26,-31,-4,-1,-1,2
1615918571925612,0,1,31,20,0,0,1,1
1615918571927608,2,-2,-10,-2,0,-4,5,-1
1615918571927608,-2,-3,1,-21,-1,-1,-15,-1
1615918571947830,-2,-3,-14,18,1,2,6,0
1615918571947830,2,1,-7,-6,-3,1,2,0
1615918571949824,0,-2,-5,-1,-1,-3,-4,-2
1615918571949824,1,1,-17,-12,0,1,6,1
1615918571961783,-1,-1,9,0,0,0,-3,-3
1615918571961783,-1,-1,-21,-1,-1,-1,-2,0
1615918571969994,-1,-1,7,19,-1,-1,2,2
1615918571969994,-4,-2,-10,-26,-2,0,-1,-1
1615918571984502,-2,-5,-10,4,-1,0,-5,-2
1615918571984502,2,6,37,4,0,-11,-2,-1
1615918571992425,0,-2,1,3,-2,2,-1,0
1615918571992425,1,-1,2,-1,-2,-4,-2,-3
1615918572015500,-3,-5,-12,-6,-2,0,-4,-3
1615918572015500,-2,-3,-14,-9,0,2,5,-1
1615918572016566,-2,-1,-21,-8,-1,-4,-3,-1
1615918572016566,0,3,20,4,1,-6,-3,1
1615918572021901,1,-1,5,3,-2,1,0,-1
1615918572021901,0,-4,-4,-1,0,0,-1,-1
1615918572036602,-1,-4,-15,-1,0,-2,-4,-1
1615918572036602,-3,-1,-7,1,-1,5,2,-2
1615918572045577,-2,1,-8,-22,0,-1,-2,-1
1615918572045577,0,1,14,25,0,-1,0,2
1615918572046607,-1,-2,-5,-12,-2,-1,-6,-1
1615918572046607,-1,-4,-2,-9,-2,0,-1,-1
1615918572067704,1,4,5,-3,-2,0,4,3
1615918572067704,2,1,-10,6,-1,-1,8,-2
1615918572069845,-2,-2,2,4,-3,-4,-17,-2
1615918572069845,-2,-5,-17,-13,-1,-2,-1,-1
1615918572081689,0,3,22,6,2,2,-1,0
1615918572081689,-4,-5,-22,-17,-1,4,4,-3
1615918572090663,2,3,13,12,1,0,6,2
1615918572090663,0,-2,-3,-5,0,-1,-4,0
1615918572105645,-1,-3,-6,2,-2,-3,-2,-1
1615918572105645,-3,-3,-16,-41,-3,2,-2,-2
1615918572107635,-1,2,29,50,2,2,1,1
1615918572107635,3,5,18,-8,-4,-3,1,2
1615918572128242,-3,-9,-28,-13,-1,-3,-2,-3
1615918572128242,2,9,61,25,0,0,-1,-1
1615918572129607,-4,-8,-51,-41,-3,-9,1,-4
1615918572129607,0,1,24,15,1,6,3,3
1615918572141920,-2,-2,12,12,-1,0,-4,-2
1615918572141920,-2,-7,-22,-18,-2,-1,-4,-1
1615918572150703,-1,1,5,-4,-2,0,2,-2
1615918572150703,1,3,6,10,-3,-3,5,1
1615918572165531,-1,1,1,-5,0,0,-7,-3
1615918572165531,-4,-6,-10,6,-1,-3,-2,-3
1615918572166529,1,2,5,0,-4,-6,-3,-1
1615918572166529,-2,-4,-17,-4,1,-2,-4,-2
1615918572187566,1,0,4,5,-1,0,6,2
1615918572187566,0,-1,-13,-2,-4,-2,-2,0
1615918572190580,-1,-2,-6,-14,-1,3,0,-3
1615918572190580,-2,-4,5,1,-4,-3,-1,-4
1615918572201895,-4,-1,6,-2,-2,-6,-4,0
1615918572201895,0,-3,-11,-17,-3,-2,-3,1
1615918572210529,2,1,2,22,2,3,5,3
1615918572210529,-4,-7,-25,-15,-1,3,3,-2
1615918572225688,0,-1,1,3,-2,-10,-24,-3
1615918572225688,-2,2,11,-6,-2,-1,1,-1
1615918572226686,-3,-6,-4,-6,-1,-1,1,-2
1615918572226686,1,4,-7,15,2,1,0,-1
1615918572248224,0,0,5,8,-1,1,5,-1
1615918572248224,-1,-2,5,1,-1,-3,-2,0
1615918572249221,-2,-3,-24,-20,-1,-3,-4,-2
1615918572249221,0,2,34,19,1,1,1,-2
1615918572270418,1,-2,-11,-5,-2,1,2,-1
1615918572270418,0,4,-3,3,0,-2,-6,-1
1615918572271389,-2,-3,-4,-12,-4,1,4,-1
1615918572271389,-2,-2,-6,0,-3,-3,-7,0
1615918572285393,-4,-5,-14,-7,-3,-1,2,-4
1615918572285393,2,3,12,-9,2,0,2,2
1615918572286393,2,3,24,33,0,1,-1,-1
1615918572286393,-3,-1,-15,-11,1,-1,-4,-2
