timestamp,emg1,emg2,emg3,emg4,emg5,emg6,emg7,emg8
1615918460028237,0,2,15,8,-2,-6,-13,0
1615918460028237,-1,-7,-27,-7,2,1,1,-1
1615918460030231,-2,-2,9,-20,1,3,5,-1
1615918460030231,0,3,5,3,-6,1,5,0
1615918460042199,-2,-2,-3,11,-2,-5,-4,-4
1615918460042199,0,2,20,17,0,-5,-3,-2
1615918460051175,3,-1,2,-11,0,7,5,4
1615918460051175,-2,-5,-4,2,-1,-2,-5,-2
1615918460066159,-3,-2,-7,-14,-1,0,-2,-2
1615918460066159,-2,0,-8,-10,-2,-4,-4,0
1615918460067157,-1,0,13,31,0,0,-1,-1
1615918460067157,-2,-5,-9,-24,-6,-8,2,0
1615918460088100,0,0,3,18,3,3,-13,-3
1615918460088100,1,-4,-30,-33,-5,-1,1,1
1615918460091068,1,8,43,64,3,-2,0,-1
1615918460091068,-2,-2,-13,-16,0,1,-1,-1
1615918460111039,1,-1,5,-7,-2,-5,4,0
1615918460111039,-3,-6,2,5,-1,0,-3,-4
1615918460113010,-1,-3,-25,-7,-2,-4,-2,0
1615918460113010,-2,-1,-3,-15,-1,8,-4,-2
1615918460125975,-2,0,-12,3,-3,0,1,-2
1615918460125975,2,0,10,10,2,4,0,1
1615918460127970,-1,-1,-11,-42,-4,-10,1,-2
1615918460127970,-2,1,15,19,4,4,5,-1
1615918460147941,2,2,11,7,1,0,-9,1
1615918460147941,-2,-1,-17,-19,-4,0,1,-1
1615918460154898,-2,-1,9,-5,-2,1,-7,0
1615918460154898,-1,-4,-5,-8,1,-1,-1,-4
1615918460161903,1,0,27,28,-1,-7,2,0
1615918460161903,-1,-5,-29,-26,-4,0,-5,-3
1615918460170856,-1,0,18,10,0,0,5,-1
1615918460170856,-3,-3,-3,-14,-7,-8,-7,-3
1615918460185816,1,-1,7,18,0,7,6,1
1615918460185816,-1,-2,0,9,-1,-2,-2,0
1615918460187810,1,-2,-32,-19,-1,0,1,-1
1615918460187810,2,-1,-18,-30,0,4,7,0
1615918460208777,0,2,14,18,0,-6,-14,-3
1615918460208777,-3,-1,-4,12,5,6,4,-2
1615918460209752,-2,-5,-12,-25,-3,-3,-6,-1
1615918460209752,-1,1,24,21,2,-2,0,2
1615918460230720,-2,-3,-28,-13,-4,-4,2,-1
1615918460230720,3,3,6,0,3,2,1,1
1615918460232690,-1,1,21,-2,-1,6,0,0
1615918460232690,0,-2,-2,18,-1,-5,-4,0
1615918460245679,-3,-4,-13,-23,0,2,5,-1
1615918460245679,0,1,-8,5,-2,-4,-4,-1
1615918460247650,0,0,11,19,0,-1,-1,-2
1615918460247650,0,-2,-9,-21,-2,2,-4,2
1615918460268593,0,2,12,12,0,-4,10,1
1615918460268593,0,1,5,2,-4,-2,-24,-4
1615918460269592,-2,-3,-12,-6,0,2,2,-1
1615918460269592,-1,0,4,-7,-3,-4,-1,-3
1615918460290560,-2,-4,-15,-9,-2,-2,-2,-1
1615918460290560,0,2,15,3,0,-3,7,2
1615918460293528,-1,-3,-18,-9,1,-1,-3,-1
1615918460293528,-1,0,10,22,2,2,-3,-1
1615918460305495,-1,1,-11,-16,-1,3,7,0
1615918460305495,-2,-2,1,-3,-1,-5,-1,-2
1615918460307490,-2,-1,-16,8,-4,-2,-4,-2
1615918460307490,0,-3,4,2,-1,-2,3,1
1615918460328458,0,2,15,10,2,2,-2,-1
1615918460328458,-4,-4,-5,-12,1,1,2,-3
1615918460330453,1,2,19,7,-4,-6,2,1
1615918460330453,-1,-3,-1,10,4,5,6,-1
1615918460351372,-1,-5,-26,-32,-4,-7,-19,-2
1615918460351372,-3,-3,21,20,0,4,6,-1
1615918460352370,1,-3,-5,0,-3,-5,2,-1
1615918460352370,0,0,-3,-9,0,1,1,-1
1615918460365247,2,3,16,12,0,-2,0,0
1615918460365247,-2,-2,-14,-27,-6,-7,-1,-1
1615918460372252,0,-6,-27,2,1,6,2,0
1615918460372252,1,6,22,49,3,3,0,-1
1615918460388209,-3,0,-6,-12,1,1,-3,0
1615918460388209,1,1,-8,-8,-5,-1,-1,1
1615918460391178,-3,-5,-1,-7,2,-2,2,-3
1615918460391178,-2,-3,-3,-3,-1,0,-2,-2
1615918460411153,-2,-1,-14,-14,-3,-8,-10,-2
1615918460411153,3,2,21,33,4,6,4,1
1615918460413119,-2,-2,-14,-7,-4,-1,-8,-2
1615918460413119,-1,2,3,-13,-2,-4,0,0
1615918460424889,-2,-5,-5,-28,-2,3,7,0
1615918460424889,1,3,16,40,5,-1,-2,0
1615918460433866,-2,0,-7,-18,-4,-4,-2,-3
1615918460433866,1,4,24,13,2,3,-1,0
1615918460448850,-2,-2,14,1,-4,-5,2,-2
1615918460448850,-1,-3,-28,-27,-2,-1,0,-1
1615918460449823,-2,0,16,15,5,4,0,0
1615918460449823,2,-3,-17,7,-3,-8,3,0
1615918460478770,1,3,21,14,7,1,-15,-1
1615918460478770,-5,-7,-14,-27,-9,-9,2,-2
1615918460479767,0,-2,-9,-12,2,6,-2,-1
1615918460479767,-2,-2,-12,21,-2,-6,-5,-2
1615918460485727,0,1,12,20,0,8,9,2
1615918460485727,1,0,2,2,-5,-3,-3,1
1615918460499689,-1,-3,-20,-32,0,-2,-5,-3
1615918460499689,-2,-3,3,12,-1,1,-2,0
1615918460508666,-3,-4,-15,-8,-4,0,3,-2
1615918460508666,-2,-1,14,5,-2,-1,-2,-3
1615918460510661,-1,-2,-15,-21,-2,0,-2,0
1615918460510661,-1,0,8,-1,1,1,-5,-3
1615918460530631,-1,1,-3,-3,-3,0,11,1
1615918460530631,0,-4,-28,-12,0,4,-9,-2
1615918460532602,1,6,42,37,2,-2,-4,1
1615918460532602,-2,-3,-27,-15,-2,1,-2,0
1615918460545595,-3,-4,-14,-11,-2,-4,-2,-3
1615918460545595,-1,4,5,-9,1,5,8,0
1615918460552561,1,0,-2,-3,-3,-5,-1,0
1615918460552561,-1,0,16,1,3,1,-3,0
1615918460568506,0,1,-15,-5,-2,3,2,-1
1615918460568506,-2,1,27,8,3,4,2,1
1615918460570508,-3,-1,-5,13,1,-1,0,-2
1615918460570508,-2,-7,-18,-31,-3,-1,1,-1
1615918460590474,2,2,-9,-3,-6,-3,-3,1
1615918460590474,2,3,24,39,4,1,-6,-1
1615918460593439,-2,-2,7,-2,-1,1,3,-2
1615918460593439,-1,-4,-30,-54,-6,-6,1,-2
1615918460606219,0,0,12,35,4,2,0,1
1615918460606219,-4,-1,8,4,0,-5,-6,-4
1615918460613368,-3,1,-6,0,-2,-1,0,-2
1615918460613368,-1,2,-10,0,-5,-3,-2,1
1615918460628328,0,-5,-4,-10,1,-1,-3,-1
1615918460628328,-1,-2,-3,-9,-7,-10,2,-2
1615918460630350,2,1,4,25,-1,1,-1,0
1615918460630350,-5,-4,-22,-27,-3,-2,-3,-3
1615918460651268,1,2,11,20,3,-1,4,-3
1615918460651268,-1,0,-10,-3,-1,-1,-7,-1
1615918460652266,-2,-3,-22,-28,-3,-1,3,-2
1615918460652266,1,-2,6,19,3,-6,-2,0
1615918460665255,-3,-4,-18,-10,-2,-2,-2,-2
1615918460665255,2,1,1,-15,3,6,6,2
1615918460672212,0,0,11,4,1,-2,-5,-1
1615918460672212,0,1,19,27,0,2,3,-3
1615918460688170,0,-3,-14,-13,-1,-2,-3,0
1615918460688170,-1,0,-2,-22,-1,-1,0,0
1615918460691162,-2,1,27,27,0,-6,-1,-3
1615918460691162,-1,2,-13,13,0,0,-1,1
1615918460710724,1,4,38,0,1,3,3,2
1615918460710724,1,-4,-5,16,-1,-2,5,-3
1615918460712744,-3,-2,-9,-18,-4,-2,-4,-1
1615918460712744,-1,1,9,-5,0,0,-1,-2
1615918460733687,-2,-5,-23,-11,-1,-1,3,1
1615918460733687,1,0,25,30,-1,0,-13,-2
1615918460734686,2,0,-11,-20,-5,-6,2,2
1615918460734686,-1,-6,-20,-4,-2,-6,-4,-1
1615918460747625,1,1,-1,-18,-2,3,-1,0
1615918460747625,-3,-7,-30,-15,1,-1,4,0
1615918460755604,0,3,37,42,3,5,0,-1
1615918460755604,-1,1,3,-15,-1,4,-1,0
1615918460778568,-2,0,5,0,-1,1,-3,-1
1615918460778568,-3,0,-11,-11,-5,1,3,-2
1615918460780558,1,0,-6,10,0,-10,-2,1
1615918460780558,0,-1,14,-14,0,7,5,0
1615918460784551,-2,-1,2,19,-2,-7,-10,-3
1615918460784551,-1,2,10,-21,0,-1,-6,1
1615918460801506,1,-1,5,12,2,3,3,-2
1615918460801506,-2,-3,1,-3,-2,-2,1,0
1615918460808462,-2,-4,-22,-40,-3,-3,-2,-4
1615918460808462,0,4,14,31,3,-3,0,-3
1615918460810457,1,-4,-25,-22,-1,7,2,0
1615918460810457,0,-3,-1,-2,-3,-3,-6,-1
1615918460831425,-2,0,1,-5,-3,-3,-1,-2
1615918460831425,-3,-3,-13,-13,-4,-7,7,1
1615918460832399,-1,2,15,8,-2,2,1,-2
1615918460832399,-1,2,6,1,1,0,-10,-3
1615918460844390,-2,-3,-7,-12,1,3,4,0
1615918460844390,1,1,41,62,-1,-3,2,0
1615918460853343,-2,-5,-4,-30,-3,0,2,1
1615918460853343,2,4,15,9,2,0,1,-1
1615918460868303,-1,-7,-14,-1,-3,-6,-3,-2
1615918460868303,-1,-2,-21,-29,0,2,0,1
1615918460870299,0,-4,-23,-14,-6,-9,-7,0
1615918460870299,-1,2,27,34,3,3,2,-2
1615918460891241,0,0,-11,-32,-1,0,-2,2
1615918460891241,0,-2,-3,8,-1,4,2,-2
1615918460893262,-2,1,18,13,-1,4,5,-2
1615918460893262,-2,-4,-11,-19,-6,-15,-17,-1
1615918460904207,0,-2,-11,11,1,4,6,-1
1615918460904207,1,5,12,3,2,5,-2,-1
1615918460913206,-3,-3,-9,-10,1,-2,-3,-1
1615918460913206,1,0,-11,10,-1,7,3,2
1615918460928143,-3,-2,8,-4,-5,-11,-1,-3
1615918460928143,-2,-4,-30,1,-3,-1,-3,0
1615918460930137,0,2,-5,-6,1,2,-2,-1
1615918460930137,-1,-2,-10,-29,-4,2,3,-2
1615918460951106,-2,1,11,24,-3,-6,-3,-1
1615918460951106,-1,0,2,8,0,-2,-2,1
1615918460952080,-1,0,4,-8,-3,-4,-2,-1
1615918460952080,-2,-1,7,32,2,-4,9,-1
1615918460965068,-2,0,-7,-11,-1,1,-6,-1
1615918460965068,0,-2,-4,4,0,0,-12,-1
1615918460974044,-2,-7,-25,-15,-3,-8,-5,-3
1615918460974044,0,2,5,-5,1,1,2,0
1615918460988007,1,2,2,23,1,4,4,-1
1615918460988007,1,-1,-1,-19,-2,0,2,-1
1615918460990974,-3,-2,-23,-23,-3,-9,-5,-3
1615918460990974,1,5,27,18,1,1,-5,0
1615918461010921,0,-2,-2,5,-2,-2,1,0
1615918461010921,-2,-3,-9,-22,0,0,2,-1
1615918461012916,-1,0,10,-23,-2,1,0,-1
1615918461012916,-3,-1,-1,15,-1,1,-1,0
1615918461024908,-2,0,12,4,-2,-1,-5,-2
1615918461024908,-4,-4,-17,-16,-4,-15,-3,-2
1615918461033885,0,0,10,4,1,11,3,2
1615918461033885,-2,-4,-30,6,-5,-8,5,-1
1615918461047848,-1,1,4,1,4,8,2,-1
1615918461047848,-2,-2,-6,-23,-3,-4,-6,-4
1615918461054805,-2,0,9,18,2,-8,3,1
1615918461054805,1,0,3,-12,2,7,1,-2
1615918461078764,0,-1,7,4,0,2,6,2
1615918461078764,-2,-6,-26,-3,-2,-2,1,-2
1615918461079773,1,5,13,11,-1,-2,-1,1
1615918461079773,-1,-5,2,24,1,-2,-2,-3
1615918461084749,0,-2,-12,-10,1,2,-1,0
1615918461084749,-1,-1,0,-15,-1,0,-2,-2
1615918461093701,2,3,8,40,0,1,-3,0
1615918461093701,-1,-4,-5,-16,-2,-1,1,0
1615918461108661,0,0,-2,-2,-3,-4,0,-3
1615918461108661,-3,-3,3,-2,0,-4,-14,-2
1615918461109658,1,1,11,15,4,4,2,0
1615918461109658,-1,-1,-15,-20,-2,0,2,1
1615918461130602,-2,2,13,3,2,-3,-2,-2
1615918461130602,-2,-2,-5,-7,-1,7,8,-2
1615918461132596,-1,0,18,14,1,-4,-13,-3
1615918461132596,-2,-5,-10,-4,-3,-4,-3,-2
1615918461144564,0,0,18,15,-2,-1,-1,0
1615918461144564,1,0,-14,-10,-3,1,2,0
1615918461153541,0,0,-2,-8,0,1,1,-2
1615918461153541,-1,-2,-8,-6,0,2,-1,0
1615918461168500,-1,-1,-2,6,-1,-2,-4,0
1615918461168500,0,0,-4,1,0,-7,8,1
1615918461170495,-2,-5,-14,-13,-3,4,-4,-3
1615918461170495,2,7,18,25,1,-2,-2,3
1615918461190442,-1,-4,-1,-15,-2,-3,-2,-2
1615918461190442,-2,-5,-4,6,-1,1,1,-2
1615918461193434,0,-1,-3,28,1,1,5,-1
1615918461193434,1,-1,3,-36,-4,0,-6,-2
1615918461213380,2,0,-8,-7,-3,-7,-2,-1
1615918461213380,0,1,17,41,3,8,6,1
1615918461215375,-4,-3,-15,-22,-5,-4,6,-1
1615918461215375,0,-3,6,0,-3,-4,-3,-2
1615918461228341,-2,-5,-31,-10,-3,-7,-1,-3
1615918461228341,-2,0,23,-11,1,3,-1,-2
1615918461230335,3,8,32,22,2,-1,-2,2
1615918461230335,2,0,-2,0,0,0,-1,-3
1615918461251279,-3,-1,-5,-19,-2,4,0,-1
1615918461251279,-1,-1,-3,8,-2,-4,-1,-2
1615918461252277,-2,-8,-22,-29,-2,-5,0,-2
1615918461252277,-3,-2,-8,2,-1,0,6,-2
1615918461273220,1,-1,9,24,4,-4,-8,0
1615918461273220,-2,3,7,-9,-5,-1,-5,-2
1615918461275215,-1,-2,10,9,-2,-3,-2,-1
1615918461275215,0,-2,-36,-31,3,7,1,-1
1615918461288180,-1,0,11,-4,-1,3,0,1
1615918461288180,0,2,15,48,2,-2,4,1
1615918461291173,-2,-4,-1,-22,-4,-4,1,-4
1615918461291173,0,-1,-9,-22,-3,-3,-17,2
1615918461311118,-1,1,-4,15,1,6,4,0
1615918461311118,-1,-1,3,-3,-4,-9,-6,-4
1615918461312116,0,2,-5,-9,-1,3,5,2
1615918461312116,-3,-3,-7,13,-2,0,2,-2
1615918461333060,2,2,8,-2,1,-9,-2,0
1615918461333060,-2,-2,-14,-14,-1,-1,-3,0
1615918461335055,0,-1,-10,-2,0,3,1,-1
1615918461335055,0,0,12,-3,-1,-1,-1,-1
1615918461356009,0,-1,-11,19,-1,-8,-6,-2
1615918461356009,1,-1,5,-11,-2,-1,1,0
1615918461358019,-2,0,-19,-5,-1,-3,-5,0
1615918461358019,-7,-7,-8,-10,-3,-2,5,-3
1615918461377971,1,7,28,2,2,9,4,2
1615918461377971,0,-3,-7,12,1,-2,-4,-1
1615918461379937,0,-2,-15,-13,3,1,-3,-1
1615918461379937,0,2,22,13,0,-6,-3,-2
1615918461393921,-3,-10,-35,-13,-1,5,5,-1
1615918461393921,0,-1,2,-11,-3,1,3,0
1615918461395892,1,1,-5,-15,-1,-4,1,1
1615918461395892,-1,-2,-21,-10,0,-2,-1,-2
1615918461407889,-1,4,36,5,-1,2,-2,-1
1615918461407889,0,2,20,29,0,-3,-4,-2
1615918461414866,-3,-5,-20,3,-3,-1,-1,-2
1615918461414866,1,0,-7,-4,0,0,1,2
1615918461430823,0,0,1,1,-4,-4,4,0
1615918461430823,-2,-3,-14,-25,-2,-8,-16,-3
1615918461432819,-5,-6,-7,21,0,2,-1,-2
1615918461432819,3,10,23,-3,0,4,2,1
1615918461453762,-1,-3,-13,-5,1,7,-2,-1
1615918461453762,0,-1,13,6,-2,-5,3,1
1615918461454754,-2,-5,-23,-14,-5,-13,-8,-5
1615918461454754,-2,-3,-6,-15,2,7,-2,-1
1615918461467724,0,1,20,6,-2,-6,1,1
1615918461467724,1,1,-19,17,3,7,5,1
1615918461474706,3,3,23,0,4,1,-8,-1
1615918461474706,-5,-5,-8,-2,-10,-7,0,-3
1615918461490663,-1,-2,-8,3,-1,1,-3,0
1615918461490663,0,1,14,9,2,-1,0,0
1615918461498617,-2,-4,-1,-29,-2,5,9,-2
1615918461498617,1,3,21,30,3,-6,-16,-1
1615918461520584,-2,-3,-16,13,1,2,-3,-1
1615918461520584,-3,-5,-17,-21,1,-2,2,-2
1615918461522554,-1,-2,2,-9,-4,0,2,1
1615918461522554,2,4,5,11,2,-1,6,1
1615918461527565,-3,-2,-10,-22,-3,-8,-6,-2
1615918461527565,1,3,-1,-11,4,10,2,1
1615918461534549,0,2,-2,23,-3,-2,2,1
1615918461534549,-3,-9,-11,-13,-2,-1,-4,-3
1615918461550793,-1,-1,21,6,-6,-13,-6,-4
1615918461550793,1,0,-26,-15,-3,4,2,2
1615918461552763,1,-2,1,-1,1,5,7,0
1615918461552763,-2,-5,1,-11,-3,-6,-12,-5
1615918461573917,-1,-1,-21,19,-1,-1,-4,-1
1615918461573917,-3,0,15,-25,-3,-2,2,-2
1615918461574918,-1,4,23,23,2,-6,-5,-1
1615918461574918,1,-5,-31,-14,-2,2,10,2
1615918461588288,-1,2,22,10,0,2,-2,-2
1615918461588288,-4,-5,-22,-6,-4,-3,-5,-4
1615918461594297,1,1,3,-9,-1,-2,0,1
1615918461594297,-1,2,37,29,1,0,0,-1
1615918461611454,0,-1,-6,-13,0,4,-2,-1
1615918461611454,-2,-3,-3,0,0,-1,-1,-1
1615918461612443,-1,0,-6,0,-3,1,0,1
1615918461612443,-2,-6,-2,-8,-3,-5,2,-3
1615918461633371,4,1,0,33,2,3,-10,1
1615918461633371,0,-3,-6,-13,-1,-5,1,-1
1615918461635367,1,2,-13,26,1,3,-3,0
1615918461635367,-1,1,7,-18,1,-1,5,0
1615918461647359,-4,-5,-23,-22,-5,-12,-8,-4
1615918461647359,2,-2,0,4,-2,3,1,-1
1615918461654343,-3,-3,7,3,-2,-3,-5,-3
1615918461654343,-1,-1,-10,2,1,3,4,-1
1615918461671271,0,-1,3,-9,-3,5,6,1
1615918461671271,-3,-4,-7,5,-4,-6,-8,-2
1615918461672292,-1,1,20,-11,-3,-1,-2,-3
1615918461672292,0,0,-25,17,-1,-3,0,-1
1615918461693239,0,-2,9,-3,1,9,3,1
1615918461693239,0,3,7,-10,-1,-3,4,0
1615918461696231,-2,-1,-9,-7,0,1,-11,-2
1615918461696231,0,2,26,7,-2,-4,2,2
1615918461707198,-3,-3,-22,-22,0,4,-2,-4
1615918461707198,-2,-1,3,37,-3,-7,-1,-1
1615918461716151,1,3,-9,-8,-4,2,1,0
1615918461716151,-2,-3,-19,-20,-5,-6,-2,-2
1615918461731135,-2,0,8,-4,1,-2,-4,-3
1615918461731135,-1,3,17,-3,1,9,1,0
1615918461732132,3,4,-10,31,-1,4,5,2
1615918461732132,-4,-5,-1,-8,-5,-2,-4,-4
1615918461753076,-1,1,4,-5,-1,1,7,0
1615918461753076,1,0,6,-18,-4,-3,0,1
1615918461755046,-3,-6,3,-8,-1,0,-3,-3
1615918461755046,0,1,3,16,3,5,-6,0
1615918461767014,0,-1,-17,-18,-2,-9,5,0
1615918461767014,-2,-5,-16,-8,-3,-2,-4,-2
1615918461775990,1,6,16,19,-3,-2,5,-1
1615918461775990,-1,0,-3,-2,-2,-4,-4,-3
1615918461790951,-3,-6,-11,-45,-4,-1,1,-1
1615918461790951,1,6,31,21,4,-3,-2,0
1615918461792945,-3,-3,4,1,2,2,-3,1
1615918461792945,-1,0,-12,7,-6,-10,2,-1
1615918461813915,2,-1,-8,-3,-1,-2,-8,-2
1615918461813915,0,-1,-16,-15,-4,-4,3,-1
1615918461814910,-3,-7,-4,-16,2,-1,-2,-2
1615918461814910,-1,3,12,-8,0,4,1,2
1615918461826854,0,1,23,29,0,0,-5,0
1615918461826854,0,1,8,14,2,4,3,1
1615918461835831,-1,1,-4,12,-2,-4,-3,0
1615918461835831,-1,-6,-17,-14,-3,-5,-1,-2
1615918461850790,0,-2,-11,0,0,1,6,-1
1615918461850790,0,-1,-21,9,-2,2,-5,-3
1615918461852786,-2,-1,-16,-8,2,-3,-1,-1
1615918461852786,-1,-1,-4,-8,0,-1,-1,0
1615918461873729,-2,-3,-8,14,0,2,0,-1
1615918461873729,-1,-2,-16,-38,-1,3,-3,-2
1615918461874726,-1,-5,0,0,-2,-10,4,-1
1615918461874726,0,5,16,13,-2,1,-18,-4
1615918461886694,0,1,14,-1,3,5,10,0
1615918461886694,-2,-3,-9,-3,-3,0,-9,-2
1615918461895694,-2,-1,11,-4,-2,-10,-1,0
1615918461895694,1,-2,-5,17,-3,-2,1,1
1615918461910630,-2,0,-5,-7,0,2,-2,-1
1615918461910630,-2,0,5,3,-2,-5,0,0
1615918461912624,2,0,-13,-21,-1,7,-3,-2
1615918461912624,-2,-5,-15,-6,-1,-1,4,-2
1615918461933593,1,2,11,8,0,0,2,2
1615918461933593,-1,-4,-24,-17,-3,-2,1,-1
1615918461935564,-2,-2,-8,-2,-3,0,-5,0
1615918461935564,0,1,7,-32,1,2,4,1
1615918461947532,-1,-2,-12,27,0,-1,2,-1
1615918461947532,1,1,20,-5,0,4,6,1
1615918461956535,-1,-4,-3,-23,1,-2,-20,-5
1615918461956535,2,2,-1,16,-1,0,6,-2
1615918461970550,-2,3,6,3,-4,-1,-2,-1
1615918461970550,0,-1,-3,3,3,3,2,1
1615918461972520,1,-1,0,9,-4,-5,10,2
1615918461972520,-1,1,3,-5,2,1,-5,1
1615918461994461,-2,0,14,5,-11,-9,-1,-3
1615918461994461,-3,-5,-34,-19,1,1,-6,-6
1615918461995459,2,10,41,16,2,2,6,0
1615918461995459,-3,-8,-27,-21,-3,2,5,1
1615918462006753,0,3,1,5,2,-4,-8,0
1615918462006753,-2,-5,-10,-4,-3,-3,0,-1
1615918462015729,-1,-1,-9,-2,-3,-1,-2,-3
1615918462015729,-1,1,4,3,4,8,2,0
1615918462030690,-1,-3,11,12,-3,-9,-1,-3
1615918462030690,-1,1,14,19,-2,0,-5,-1
1615918462032685,-4,-5,-8,-37,-2,0,-4,-4
1615918462032685,-2,-1,1,18,-1,-3,-3,-2
1615918462053629,-2,1,6,-1,-3,5,11,-1
1615918462053629,2,5,30,32,2,-1,-16,1
1615918462054626,-2,-1,4,2,-1,-4,0,0
1615918462054626,-2,-4,-13,-14,0,2,-1,-2
1615918462067591,0,-5,-41,-40,-4,-1,-6,-1
1615918462067591,1,2,35,22,1,-13,3,-1
1615918462076567,-1,-2,-2,7,0,6,3,0
1615918462076567,1,-2,0,-1,-1,-1,-12,1
1615918462099506,-1,-4,-16,-4,1,0,1,-1
1615918462099506,0,9,44,16,3,3,5,-1
1615918462100504,-2,-3,-21,-1,0,0,2,0
1615918462100504,-1,2,12,10,-3,-1,3,-3
1615918462113468,-1,-2,-15,-5,4,2,-1,-2
1615918462113468,-2,-7,-38,-23,-4,-8,-6,-3
1615918462115464,0,1,11,9,-2,-2,1,0
1615918462115464,1,3,-2,-4,-2,0,3,0
1615918462136407,-2,-1,-2,-8,-1,5,-3,-1
1615918462136407,-2,-2,8,8,-4,-9,10,0
1615918462137405,1,1,-36,-31,-2,-3,-22,-2
1615918462137405,-2,-1,37,38,0,-2,0,-2
1615918462150370,1,1,-2,-10,-3,3,-2,0
1615918462150370,-3,-4,-2,-18,-4,-1,7,0
1615918462157351,-1,3,19,15,-1,-5,4,0
1615918462157351,1,2,8,-10,-1,3,-3,-2
1615918462173308,0,0,13,16,-1,-6,-3,-1
1615918462173308,-1,-4,-11,-8,0,6,-3,-2
1615918462175303,-2,-5,-21,-13,-2,-5,1,-2
1615918462175303,-1,0,-8,-11,1,0,-1,0
1615918462196247,-1,-1,19,-2,-2,-6,2,1
1615918462196247,-2,0,-10,5,0,2,-2,-1
1615918462197244,-2,-2,8,10,-1,2,4,-1
1615918462197244,-1,-1,4,-13,-1,1,1,0
1615918462211207,-4,-6,-17,-6,-1,0,-7,-3
1615918462211207,0,1,-1,-21,-6,-16,-11,0
1615918462212205,4,6,50,43,2,5,3,3
1615918462212205,-2,-2,-11,0,0,1,3,0
1615918462233148,-1,-5,-25,-33,-1,-1,-2,-2
1615918462233148,1,-1,9,23,4,7,-2,1
1615918462235144,-4,-5,-14,-9,-2,-4,0,-2
1615918462235144,1,-5,-15,-34,1,-5,-5,-2
1615918462256030,-1,4,42,44,-5,-4,0,-1
1615918462256030,0,-1,-5,-6,-1,3,2,0
1615918462258024,-1,-1,4,5,0,0,0,-2
1615918462258024,-1,4,21,30,-2,-11,-3,0
1615918462269993,2,0,7,-10,2,6,4,-3
1615918462269993,-1,-6,-3,-2,-3,-1,-13,-4
1615918462276973,-1,-1,-15,-22,-1,10,2,1
1615918462276973,-1,-3,0,18,-1,-6,-2,-3
1615918462293697,-1,-1,-3,7,1,-4,3,-2
1615918462293697,-2,0,-13,-14,0,6,3,0
1615918462295691,1,-5,-18,-21,-6,-11,1,-2
1615918462295691,-2,4,2,21,-1,2,-16,-1
1615918462316281,-4,-2,-6,-9,6,-1,0,-2
1615918462316281,-1,-7,-29,-24,-4,-2,2,-3
1615918462317306,1,2,30,25,1,-3,-3,-1
1615918462317306,-1,-5,-41,-25,0,2,8,1
1615918462331270,1,2,15,25,-2,-2,-5,0
1615918462331270,-3,-1,2,-4,-2,0,1,1
1615918462337250,0,0,-9,4,4,5,7,1
1615918462337250,-3,-4,2,-1,-4,-6,-13,-4
1615918462353184,-1,-2,-1,-28,-3,-8,-4,0
1615918462353184,-1,3,22,33,-2,0,4,0
1615918462355179,-1,-6,-13,-18,-2,-1,1,-2
1615918462355179,2,2,2,-6,2,7,6,0
1615918462376122,-3,-2,-17,27,-6,-3,-6,0
1615918462376122,0,3,12,-8,5,2,4,0
1615918462378117,-2,0,-8,0,-4,-6,-1,-1
1615918462378117,-3,-1,21,1,-2,5,-2,0
1615918462398079,1,-2,-22,-20,-3,-4,4,-2
1615918462398079,0,-1,-1,5,0,-4,-4,-1
1615918462400050,-2,-6,-23,18,-3,-3,-21,-4
1615918462400050,1,-2,-4,-24,-2,-2,7,3
1615918462421017,-2,2,15,15,1,0,0,-2
1615918462421017,-1,-3,-8,-18,-2,1,3,0
1615918462423012,-1,0,0,-6,3,-1,-1,-2
1615918462423012,-1,-6,-10,22,-2,2,-3,-2
1615918462434956,3,5,29,27,1,1,1,0
1615918462434956,-1,-3,-17,-14,-3,-6,-2,0
1615918462443932,-2,-2,-5,-1,-1,6,3,1
1615918462443932,-1,0,-6,-7,-4,-8,3,-1
1615918462449915,-3,-6,-30,-22,0,6,-2,1
1615918462449915,0,-2,-4,1,-1,3,-2,-1
1615918462464902,1,4,20,-2,-2,-3,4,1
1615918462464902,-2,-3,-6,-1,1,-2,-7,-5
1615918462473851,0,0,-8,-22,-1,1,1,4
1615918462473851,-1,6,18,21,2,4,6,-1
1615918462474870,-2,-6,-15,-3,-2,-9,-13,-1
1615918462474870,1,5,14,-5,-4,3,5,2
1615918462495817,-2,0,5,-11,-2,-4,-4,-4
1615918462495817,1,2,18,17,0,-2,-3,2
1615918462497813,-3,-4,-17,-23,-4,1,5,-1
1615918462497813,-4,-3,7,-22,-8,-7,0,-2
1615918462510777,-2,-5,-7,43,4,-4,-5,-2
1615918462510777,-2,-1,-14,-25,-2,-1,3,-2
1615918462516762,1,2,2,6,-3,-5,-2,0
1615918462516762,2,-1,-8,-3,5,3,-2,2
1615918462533691,1,3,27,-4,0,3,6,0
1615918462533691,-1,-5,-13,1,2,0,-2,-4
1615918462534689,-1,2,10,13,0,8,3,-2
1615918462534689,-3,-4,4,-5,2,-2,6,-4
1615918462555634,-2,-4,-15,-18,-3,-7,-7,1
1615918462555634,0,0,16,24,3,3,2,0
1615918462557628,0,1,0,-11,6,-1,-2,0
1615918462557628,-1,-2,-18,-9,-6,6,5,0
1615918462570594,-3,-7,-19,-29,-3,-7,-6,-5
1615918462570594,0,-1,16,35,-3,1,-3,-2
1615918462577598,-1,-2,-5,15,0,-1,3,-1
1615918462577598,-1,1,0,-5,1,-7,4,-1
1615918462594553,2,1,-3,6,-2,0,-12,0
1615918462594553,-3,-3,1,-9,-4,-2,-1,-2
1615918462596524,2,8,21,-5,-3,-5,-1,2
1615918462596524,-1,-3,-15,-7,0,4,-4,0
1615918462616471,0,1,2,9,-2,-10,2,0
1615918462616471,-2,-4,-7,-2,-2,-1,-1,-1
1615918462617468,-3,-5,-9,-8,-4,-1,-2,-3
1615918462617468,-3,-4,-7,-17,2,3,-1,0
1615918462629459,1,1,12,15,2,2,4,-1
1615918462629459,-2,-4,-17,3,0,2,-2,-3
1615918462638412,0,-2,14,-11,-4,-2,-3,-1
1615918462638412,-2,0,-2,1,-2,-6,5,-1
1615918462653371,-3,-5,-17,-16,-1,1,-7,-1
1615918462653371,0,1,7,9,-3,-7,-12,-1
1615918462655366,-2,-4,-9,-9,4,5,3,-2
1615918462655366,1,0,-9,-5,-5,-5,-2,-2
1615918462676336,0,0,15,34,-1,-2,9,4
1615918462676336,-1,0,-3,-30,-1,-1,3,-1
1615918462677307,-3,-1,10,0,-1,0,-4,-3
1615918462677307,-1,1,9,4,-3,-7,-5,0
1615918462689300,-3,0,-7,-25,-2,-2,2,0
1615918462689300,-3,1,10,23,-1,1,-3,-2
1615918462698279,-2,-4,-10,-4,-2,-3,4,0
1615918462698279,3,3,-1,5,1,0,-4,0
1615918462714233,-3,-7,-16,-37,4,5,-3,-4
1615918462714233,0,6,15,23,1,0,8,1
1615918462716229,-3,-3,-4,12,-1,2,-8,-1
1615918462716229,-2,-10,-18,-8,-3,-1,-3,-3
1615918462735154,3,5,29,11,-2,-1,-8,-2
1615918462735154,0,-4,-23,-28,-1,-1,-3,-1
1615918462744129,1,2,4,7,-1,-3,4,3
1615918462744129,-2,-3,2,-2,3,6,6,-1
1615918462750140,1,-2,-4,28,1,-8,2,1
1615918462750140,-1,-4,-12,-32,-2,1,0,-1
1615918462759113,-1,2,15,15,-1,-5,-2,-3
1615918462759113,-1,-2,0,8,1,-1,-7,-1
1615918462773075,-1,1,-7,-4,-1,1,1,0
1615918462773075,-2,-4,-28,-16,-3,-3,-1,0
1615918462775081,1,-2,-4,5,2,1,-2,-1
1615918462775081,1,1,6,9,1,5,0,-2
1615918462796014,-3,-6,-3,-13,-4,-6,-2,-4
1615918462796014,-2,-3,-15,-11,1,1,-1,1
1615918462798009,2,-1,6,1,-1,0,2,2
1615918462798009,3,8,30,41,2,2,5,3
1615918462809953,-4,-4,-12,-22,-3,-6,-1,-5
1615918462809953,-2,-3,-7,-4,-1,-3,1,-3
1615918462818930,-3,1,17,-7,-2,-1,-10,-2
1615918462818930,-1,-1,-5,6,1,-5,-2,1
1615918462833889,0,0,-7,-10,1,3,6,1
1615918462833889,0,0,26,21,-4,0,-3,0
1615918462834886,0,-3,-8,-4,-2,4,-4,-2
1615918462834886,-1,0,-2,-13,-2,-14,-1,-2
1615918462855855,-1,0,-8,25,1,8,1,0
1615918462855855,-1,-2,-7,-13,-1,-9,-2,-1
1615918462857826,-3,-6,-13,-13,0,1,1,-3
1615918462857826,0,3,22,10,-2,0,-1,-2
1615918462869794,-1,0,-4,-32,-4,5,-3,1
1615918462869794,0,-1,17,42,2,0,-5,-3
1615918462878482,3,5,6,-14,0,-2,6,3
1615918462878482,-1,-4,-26,18,-4,-1,-2,-3
1615918462893708,-2,-3,11,1,-1,2,2,-1
1615918462893708,1,-3,-24,-17,3,4,9,2
1615918462895728,0,3,6,-4,-4,-10,-16,-3
1615918462895728,-3,-8,-20,-25,-2,1,-2,-3
1615918462915676,-1,-2,2,-3,0,0,0,-2
1615918462915676,4,8,42,67,2,-2,-2,2
1615918462917644,-2,-7,-32,-15,2,5,5,-1
1615918462917644,-3,0,-3,-15,-1,-4,-1,-1
1615918462929639,0,-2,-15,-8,1,-3,2,-2
1615918462929639,-1,3,27,-2,-2,-5,-12,-3
1615918462938589,-1,0,-8,4,1,6,7,0
1615918462938589,-2,-4,-4,-15,-6,-2,-5,-1
1615918462953479,2,3,9,30,2,7,7,0
1615918462953479,0,-5,-32,-31,-7,-13,-2,0
1615918462955475,0,2,38,27,1,-2,-3,-1
1615918462955475,-2,-5,-22,-16,1,3,0,0
1615918462976445,0,4,19,11,-1,-2,2,1
1615918462976445,-2,-5,-31,-42,-4,-6,-11,-3
1615918462977439,2,3,18,12,0,2,1,-1
1615918462977439,1,-2,-7,2,-1,-2,-4,-2
1615918462998359,-1,-1,3,-7,-1,0,-2,0
1615918462998359,-1,2,5,-16,3,8,6,-2
1615918463000354,-1,-3,-4,-14,-7,-6,2,1
1615918463000354,0,1,9,6,1,6,3,0
1615918463021324,-2,-2,7,4,-3,-11,0,-3
1615918463021324,-4,-6,-17,-35,-1,8,-12,-6
1615918463022319,-1,1,-2,26,-1,-7,3,2
1615918463022319,2,3,11,-1,3,2,1,1
1615918463036285,-3,-7,-27,-24,-12,-11,-6,-3
1615918463036285,-1,1,-4,-2,1,0,8,3
1615918463042269,-2,-7,-17,-16,1,-2,-3,-5
1615918463042269,-1,0,9,6,0,2,-3,-1
1615918463060193,0,0,10,44,6,7,-1,1
1615918463060193,-2,-1,-16,-17,-2,-2,2,1
1615918463061191,-2,-2,0,-6,-5,-8,9,-3
1615918463061191,0,4,6,4,1,0,-20,0
1615918463073183,0,-4,-14,-15,-2,1,-1,-2
1615918463073183,0,-1,-2,3,0,-2,2,-1
1615918463075154,-1,-1,5,18,3,0,1,1
1615918463075154,-1,-4,-14,-20,-4,-3,4,0
1615918463096122,2,5,19,-2,1,-2,-5,-2
1615918463096122,-4,-5,-7,-2,0,3,1,-3
1615918463098119,0,1,18,-1,0,-4,-2,1
1615918463098119,0,2,11,24,-4,-7,1,0
1615918463118039,0,2,-2,1,2,2,-2,-1
1615918463118039,-2,-4,-7,-2,3,1,5,-1
1615918463120034,0,2,16,-4,-2,2,-5,-2
1615918463120034,1,-1,-3,30,4,2,7,1
1615918463134023,-3,-2,2,-6,-2,-5,-18,-3
1615918463134023,1,-1,-2,10,-3,-2,-1,0
1615918463134994,-1,-1,-9,-6,0,6,8,-1
1615918463134994,-1,-1,9,-5,-1,-11,-10,-3
1615918463163940,0,0,-6,-8,-2,3,5,0
1615918463163940,-3,-3,-4,8,-4,-5,-4,-3
1615918463164938,0,-4,-28,-12,0,1,-2,2
1615918463164938,0,1,24,5,-3,-1,5,-1
1615918463178901,0,-1,-3,-2,1,3,1,-1
1615918463178901,-2,-2,4,-22,-4,-3,-1,-3
1615918463179900,-1,0,-7,22,2,2,0,-2
1615918463179900,-2,-2,6,6,-2,7,-2,0
1615918463193863,0,-2,-15,-1,-3,-15,-1,0
1615918463193863,1,3,20,-8,-1,1,-1,1
1615918463195862,-3,-5,-7,-7,-5,-2,-7,-3
1615918463195862,-1,-2,-7,-3,3,4,3,0
1615918463215803,-3,-5,-49,-23,-2,2,1,-2
1615918463215803,2,2,18,25,0,1,3,1
1615918463217772,0,1,2,-11,2,1,-2,-2
1615918463217772,0,3,13,-18,-2,-1,-1,-3
1615918463238716,-1,-3,-2,15,-3,0,2,-1
1615918463238716,3,-4,-29,10,2,5,3,2
1615918463239713,-1,1,20,-3,-3,-8,-6,-2
1615918463239713,-3,-2,-12,-16,0,-4,6,-4
1615918463252680,2,3,9,9,-2,1,-2,1
1615918463252680,0,-2,-7,-22,-1,5,-6,0
1615918463259685,-5,-2,-7,26,0,-9,-1,-2
1615918463259685,1,-4,-13,-9,-4,2,1,0
1615918463276108,-1,3,9,-4,0,-5,2,1
1615918463276108,0,2,26,21,4,3,-1,-2
1615918463277294,-1,-1,-28,-35,-1,6,-2,-2
1615918463277294,-1,-3,11,27,-5,-7,-1,-2
1615918463299237,-3,-3,0,-31,1,4,-1,-2
1615918463299237,2,6,59,40,1,-5,0,-1
1615918463301232,1,-4,-18,-11,-2,-1,2,1
1615918463301232,-2,-2,-12,-7,-2,2,-8,-4
1615918463313370,1,2,19,1,5,0,0,1
1615918463313370,-4,-4,-22,-17,-5,-5,-1,-3
1615918463319352,1,4,8,-4,-1,4,4,2
1615918463319352,-3,-3,-23,-7,-2,1,4,0
1615918463336327,1,2,17,9,-1,-5,-9,-1
1615918463336327,0,3,21,-3,-1,-4,1,0
1615918463337328,0,-2,-8,-6,-1,1,-3,0
1615918463337328,-1,-2,-10,3,-1,3,6,-1
1615918463358278,-2,-2,6,-4,0,-8,2,0
1615918463358278,-2,1,-6,17,-5,-3,-4,0
1615918463360241,-2,-3,-5,-18,-2,0,-2,-5
1615918463360241,-3,-3,-3,-18,-2,-1,-3,0
1615918463373232,1,4,27,35,2,4,1,0
1615918463373232,-3,-4,-12,-14,3,0,0,-4
1615918463379213,-1,-2,-1,1,-2,-4,4,-1
1615918463379213,0,-2,-10,-17,-2,-6,-5,-1
1615918463396169,-1,-1,0,7,2,1,-4,-2
1615918463396169,-2,-2,-10,-5,-6,-7,2,0
1615918463398140,-1,-2,-1,-7,1,16,0,0
1615918463398140,-1,1,-4,0,3,-9,-3,-1
1615918463418556,-4,-4,-8,4,-6,-2,11,-4
1615918463418556,-1,0,21,6,0,3,-13,-2
1615918463420574,-4,-6,-22,-1,-4,-8,-4,-4
1615918463420574,1,1,2,1,2,3,-2,1
1615918463441494,0,1,-5,-10,-1,5,-1,-2
1615918463441494,-2,-4,-26,-5,-1,-2,0,-1
1615918463442492,0,1,31,16,-1,-5,-3,0
1615918463442492,0,-2,1,18,3,-2,7,0
1615918463456454,-1,-3,-27,-23,-5,0,-17,-2
1615918463456454,1,1,-8,-4,-3,-1,9,-1
1615918463457451,0,1,9,-1,1,-8,-5,2
1615918463457451,-2,-2,7,1,-3,5,-2,-1
1615918463478419,-1,-3,-10,-5,-1,-1,6,-1
1615918463478419,2,0,-14,-21,0,3,0,-1
1615918463480391,-1,-1,14,37,0,-8,-3,-3
1615918463480391,-1,-1,-14,-19,-4,-1,-1,-1
1615918463493384,-3,-5,5,19,1,1,6,-1
1615918463493384,2,1,5,-2,1,-1,-4,2
1615918463499368,-1,2,-11,-19,-1,2,0,0
1615918463499368,-4,-5,-12,10,-1,-2,-4,-3
1615918463516320,-1,5,9,-4,-2,1,1,0
1615918463516320,-2,-1,7,5,-2,-6,6,-3
1615918463517292,0,-1,-12,-17,-6,-8,-15,-2
1615918463517292,0,1,23,29,3,3,1,-1
1615918463538259,-3,-3,-20,-18,0,1,-3,-1
1615918463538259,-2,-1,2,1,-1,3,5,0
1615918463540231,1,-1,-13,1,2,3,4,2
1615918463540231,-2,1,0,-3,-3,-11,-9,-3
1615918463553220,-1,-3,-10,-3,1,4,3,2
1615918463553220,-2,2,32,7,1,5,-1,-1
1615918463560186,0,-1,8,14,-1,-7,2,-3
1615918463560186,-1,2,-1,2,2,3,-1,1
1615918463576160,0,-2,-2,-17,0,-5,-1,0
1615918463576160,-2,-1,13,26,0,1,-2,-3
1615918463578153,-1,0,-10,-9,-4,-1,9,-1
1615918463578153,1,2,19,9,-2,-7,-21,-1
1615918463599072,-1,-2,-9,-3,0,5,0,-2
1615918463599072,0,-1,-14,-11,0,-4,1,1
1615918463600069,-4,-4,-3,5,-2,-4,-1,-1
1615918463600069,-1,-4,-31,-25,-5,-3,4,0
1615918463612063,2,4,14,16,1,2,-3,-2
1615918463612063,-1,-4,-20,-7,0,-2,-4,1
1615918463621014,0,-2,1,13,-2,0,5,2
1615918463621014,-2,-2,-20,-29,1,1,3,-2
1615918463635643,-2,-3,-5,-13,-9,-5,-4,-1
1615918463635643,-1,0,-3,34,-4,-11,-1,-2
1615918463637637,-1,-3,-6,-14,-1,0,-7,-2
1615918463637637,0,-2,-3,0,-1,3,8,0
1615918463658606,3,3,5,-4,-1,-3,6,2
1615918463658606,-1,-2,-6,-7,-1,-3,-17,-3
1615918463660600,-2,-1,6,0,0,4,2,0
1615918463660600,-3,-3,-3,-42,-5,-4,-2,-2
1615918463672569,-2,1,28,84,-1,-1,5,1
1615918463672569,0,-2,-16,-26,-3,-4,4,0
1615918463681520,-1,-1,-4,-8,2,1,-7,-1
1615918463681520,1,1,19,14,0,-2,0,0
1615918463696375,-4,-2,5,-10,-5,-5,-1,-5
1615918463696375,5,8,34,8,3,2,3,3
1615918463697372,-4,-5,8,22,-1,0,-4,-3
1615918463697372,-1,-5,-23,-2,0,2,7,-1
1615918463718317,-1,4,13,-18,0,1,3,0
1615918463718317,-2,0,18,11,3,4,-15,-3
1615918463720311,0,3,2,-7,-5,-7,2,0
1615918463720311,-3,-3,-15,14,0,-8,-5,-1
1615918463732302,0,-1,-5,-18,2,3,-2,-1
1615918463732302,-1,-2,-11,-4,-4,2,4,0
1615918463741255,-1,0,-21,-22,2,-4,3,0
1615918463741255,1,3,30,6,-2,-2,-3,0
1615918463755218,-1,-5,-11,1,1,3,2,-1
1615918463755218,-4,-7,-16,-6,-4,-5,-3,-3
1615918463763338,2,6,4,-5,5,4,-2,0
1615918463763338,0,2,-4,9,-2,0,4,1
1615918463778620,0,-2,5,-10,1,-1,-5,0
1615918463778620,-3,-3,-17,1,-1,2,6,-2
1615918463780615,0,-3,-5,-4,-5,-2,-18,-3
1615918463780615,2,4,20,18,3,5,1,3
1615918463792744,-5,-4,-9,1,1,-5,-1,-3
1615918463792744,-2,-1,-8,-17,-1,0,3,-1
1615918463808703,-2,-5,-13,-3,-5,-5,1,-1
1615918463808703,3,5,35,7,-1,-2,3,2
1615918463816080,1,-7,-31,-11,-2,-3,-8,-2
1615918463816080,0,2,6,5,-2,-4,1,1
1615918463818077,0,4,10,-3,0,7,2,-2
1615918463818077,-1,-3,-11,-13,0,4,-6,-3
1615918463838647,-3,0,1,-10,-5,-7,1,-1
1615918463838647,0,-2,1,11,3,6,3,1
1615918463840667,-1,-1,13,11,4,3,-1,-2
1615918463840667,-1,-5,-8,5,-4,-13,-12,-3
1615918463852638,2,2,4,-5,-4,2,-4,0
1615918463852638,1,0,-3,-8,-1,-3,-1,-2
1615918463861611,-2,-1,8,10,-2,0,6,0
1615918463861611,-3,-5,-13,-11,-1,1,3,-1
1615918463876546,-2,-1,-11,2,1,0,-4,-1
1615918463876546,0,4,20,5,1,-1,-1,-1
1615918463877544,-1,-3,-6,5,-2,-3,-1,-3
1615918463877544,-1,-2,-5,-16,-4,-11,-2,1
1615918463898488,-1,0,13,29,3,-1,-1,0
1615918463898488,-2,-7,-20,-32,-4,1,2,-2
1615918463900507,1,4,25,49,0,0,-1,-3
1615918463900507,-2,-3,-9,-22,-2,4,-17,-4
1615918463912475,-2,-3,1,0,-2,-2,6,1
1615918463912475,-3,-3,-15,-4,-8,-5,0,1
1615918463921451,-2,-1,3,-23,1,-3,1,2
1615918463921451,-2,-3,-21,-16,1,5,13,-1
1615918463936387,3,3,17,14,0,5,-16,-2
1615918463936387,-2,-3,-1,-3,-1,-6,-2,0
1615918463937406,-1,-6,-30,-2,0,1,1,-2
1615918463937406,0,3,10,-3,-2,-3,1,-2
1615918463958354,-1,-3,-10,-18,-2,3,3,-1
1615918463958354,-2,-2,-10,-5,0,-1,1,-1
1615918463960347,-1,-1,-1,9,1,5,2,0
1615918463960347,1,-2,-2,0,-4,-7,-9,0
1615918463972317,-3,-2,-14,6,-2,-3,0,-2
1615918463972317,0,-1,10,9,-1,-1,0,-2
1615918463981267,1,-1,-25,-25,-1,2,5,2
1615918463981267,-1,8,44,33,1,-1,2,-1
1615918463996251,0,-4,-23,-20,-2,-2,-2,-1
1615918463996251,-2,-2,2,0,0,1,-8,-2
1615918463997248,-1,-5,-23,-30,-3,3,9,1
1615918463997248,-1,1,12,40,6,7,0,-4
1615918464018168,-1,-3,-4,-30,2,-9,-9,-1
1615918464018168,-2,-2,-2,32,1,5,2,1
1615918464020163,1,2,32,12,-4,-6,-6,-2
1615918464020163,1,0,-7,-2,-3,9,9,1
1615918464041130,-2,0,-7,0,1,-8,3,0
1615918464041130,0,2,7,-4,-1,4,-4,0
1615918464043102,-2,-2,5,-4,-2,-4,-1,-1
1615918464043102,-3,-6,-5,0,0,-3,-1,0
1615918464056067,1,-1,-6,-22,-5,3,-1,-2
1615918464056067,-1,4,17,30,0,-6,-2,-2
1615918464058062,-2,2,13,0,-1,-4,-3,-1
1615918464058062,-3,1,0,-17,0,6,5,2
1615918464078008,-1,-1,-2,-1,0,1,0,-1
1615918464078008,-3,-2,-13,-9,0,-7,-9,-4
1615918464086506,1,3,17,17,-1,0,-3,-1
1615918464086506,2,-1,12,6,-3,3,0,0
1615918464101466,-2,-4,-12,-11,-4,-5,11,-1
1615918464101466,2,0,7,-5,2,4,0,1
1615918464102464,-1,-2,-10,4,2,1,-2,0
1615918464102464,0,-2,4,8,-1,-4,-1,-3
1615918464116451,-2,0,1,-2,-2,2,-5,1
1615918464116451,-1,-1,0,8,-5,-5,-2,-2
1615918464117424,0,-1,-3,-14,1,-1,0,0
1615918464117424,0,-1,-21,-19,0,0,0,-4
1615918464138393,0,-1,29,43,2,2,6,-1
1615918464138393,0,-3,-12,-13,-6,1,-7,-2
1615918464140363,-2,-1,-3,-2,1,-6,-3,-1
1615918464140363,-3,-5,-19,-25,-8,-6,-2,-2
1615918464161334,0,1,7,26,2,5,-2,2
1615918464161334,-1,-2,-4,-3,3,1,6,0
1615918464162303,-1,-3,-25,-20,-2,1,-2,-2
1615918464162303,-1,-3,4,-4,-5,-6,-4,0
1615918464175293,-2,-1,10,2,-3,-4,0,-2
1615918464175293,-1,-2,-16,-9,-1,-2,1,-2
1615918464182275,0,3,-4,9,2,7,0,0
1615918464182275,1,-1,-12,-27,1,-6,-4,-1
1615918464198236,-1,-1,-4,13,2,6,10,-1
1615918464198236,0,-1,7,-14,0,0,-8,1
1615918464200232,0,-5,-2,-2,-5,2,-2,0
1615918464200232,0,2,10,14,3,6,4,0
1615918464221170,2,1,0,-3,-5,-19,-8,1
1615918464221170,-2,-2,-10,-29,-1,3,5,0
1615918464223141,-1,0,31,14,0,3,1,0
1615918464223141,-1,-1,-6,19,1,-2,1,0
1615918464235109,-2,-4,-13,-24,0,2,-2,-2
1615918464235109,1,-1,-3,-7,0,-2,-1,-1
1615918464242090,-2,2,0,-9,-6,-11,-4,-3
1615918464242090,0,0,2,4,1,-6,0,0
1615918464259070,-1,1,18,16,0,1,-6,-1
1615918464259070,1,0,-17,-22,-3,-4,1,-1
1615918464260042,-1,-6,-3,4,0,5,3,-2
1615918464260042,-2,0,8,15,-2,-3,4,-2
1615918464280986,-4,0,1,-29,-3,0,-23,-6
1615918464280986,1,-4,-5,1,-2,1,1,-2
1615918464282981,-2,1,8,26,-2,-1,-1,-1
1615918464282981,1,0,-2,14,-2,-6,1,1
1615918464294974,1,-4,-33,-22,0,1,5,1
1615918464294974,-1,4,47,31,-1,2,-1,0
1615918464301931,-1,-1,-17,-25,-3,1,-2,-2
1615918464301931,-4,-3,-5,-1,4,-4,-4,-1
1615918464318885,1,3,18,25,-3,-1,1,-1
1615918464318885,-1,-4,-16,-13,-1,-4,-1,0
1615918464319908,1,-3,0,-8,2,0,0,-1
1615918464319908,-4,-7,-18,-17,0,-1,-3,-5
1615918464341848,1,4,21,7,2,4,13,3
1615918464341848,-1,0,-9,8,0,-2,-13,-3
1615918464342834,-2,-4,-2,0,-2,-4,-5,-2
1615918464342834,0,3,1,1,-1,4,-3,0
1615918464363795,-1,-3,-19,-1,-8,-3,4,-1
1615918464363795,1,0,6,-16,4,4,12,3
1615918464364763,2,3,25,25,1,-5,5,1
1615918464364763,-4,-5,-14,-3,-2,-4,-14,-6
1615918464386071,-2,-2,-9,-4,-2,0,2,-1
1615918464386071,-3,-2,-17,-7,0,1,-3,-2
1615918464388041,2,2,27,6,0,-2,-1,1
1615918464388041,-1,-3,-20,-15,-4,6,11,2
1615918464409012,-2,0,3,11,4,4,-16,-4
1615918464409012,-3,-2,-7,-4,-5,-10,2,-3
1615918464409982,0,-4,-34,-19,-3,-4,-2,0
1615918464409982,-1,-1,9,21,-4,1,0,0
1615918464414995,-2,0,4,-13,3,-4,1,-1
1615918464414995,-3,-4,-20,-10,-6,-4,-7,-3
1615918464421974,2,4,-4,-2,2,4,5,-1
1615918464421974,0,1,3,0,-3,-4,2,1
1615918464438929,-1,-4,-7,3,-2,-2,-2,0
1615918464438929,0,2,-3,-14,0,-2,4,1
1615918464439902,-3,-4,-19,-12,-3,-5,-6,-5
1615918464439902,1,-3,-1,15,-1,2,1,-1
1615918464460870,-1,-1,-9,-28,-4,-7,3,-2
1615918464460870,-1,0,15,30,1,-3,-8,-1
1615918464462841,-2,-4,-8,-14,0,-2,0,1
1615918464462841,-3,0,7,-10,-2,7,0,0
1615918464475830,-2,-4,-30,-4,1,-5,1,-2
1615918464475830,-1,1,-8,-18,-2,4,3,-3
1615918464481814,-1,-2,-7,-5,-5,-2,-3,1
1615918464481814,-1,-5,-2,4,-5,-7,-6,-2
1615918464498744,0,1,6,0,1,3,0,-1
1615918464498744,1,2,13,-1,0,0,2,1
1615918464500739,0,-1,-6,-6,0,-1,-4,-2
1615918464500739,0,-2,-9,-9,1,0,2,-2
1615918464520686,-2,-3,4,31,-4,-5,-21,-2
1615918464520686,-1,0,18,9,-2,4,3,1
1615918464522681,-3,-1,-21,-2,-1,-5,-8,-3
1615918464522681,1,4,39,23,2,-1,5,0
1615918464534650,-1,1,-11,-18,-5,-1,3,0
1615918464534650,-1,-1,5,18,3,1,-3,-2
1615918464543625,-2,-7,-32,-12,-5,-6,0,-3
1615918464543625,-1,4,36,7,-1,-3,-2,1
1615918464558609,0,-2,-4,-1,-5,2,2,-1
1615918464558609,-2,-7,-19,-12,-2,-6,-4,-3
1615918464560604,0,9,42,40,1,2,4,1
1615918464560604,2,-2,-17,5,1,11,1,0
1615918464580908,-2,-2,11,-12,3,-8,-14,-2
1615918464580908,-2,-1,-13,-15,-6,-1,5,1
1615918464582904,2,-2,4,-6,-2,-7,-1,2
1615918464582904,0,-3,-20,-27,3,0,4,-1
1615918464594871,0,2,37,40,1,1,-9,-1
1615918464594871,0,3,0,-5,-4,-9,-3,0
1615918464603848,-5,-4,-4,-6,1,5,-2,-2
1615918464603848,-4,-4,-12,-10,-4,-1,-2,-5
1615918464618808,1,0,-7,-27,-1,-4,5,-1
1615918464618808,0,1,12,-9,-1,-4,-5,1
1615918464619829,2,1,6,34,0,-3,6,2
1615918464619829,-2,2,14,-3,-2,-3,-12,-1
1615918464640776,-2,-4,-30,3,1,5,4,1
1615918464640776,-2,-2,8,14,0,0,-1,-2
1615918464642744,-2,-3,0,-9,1,1,1,-2
1615918464642744,2,2,-22,-1,-3,-1,0,2
1615918464654712,0,-1,6,-10,1,-4,1,0
1615918464654712,0,-3,-11,11,3,-1,-3,-5
1615918464663687,-1,-1,-9,-11,-1,2,-1,-2
1615918464663687,0,-3,-13,-6,0,8,0,0
1615918464685630,-1,1,12,0,-1,-5,11,1
1615918464685630,-1,-4,-18,16,1,-1,-12,-1
1615918464687624,0,-1,17,-1,-3,-3,-4,-2
1615918464687624,-3,-4,-4,-25,0,-4,4,-4
1615918464701586,1,4,51,56,5,7,7,3
1615918464701586,-2,-4,-12,-35,-12,-7,-4,-1
1615918464702598,0,-2,-3,5,0,-1,0,1
1615918464702598,-3,0,2,6,2,5,-1,-2
1615918464714576,-2,-4,-16,-9,-2,-3,1,-3
1615918464714576,-1,-2,-2,-1,-2,1,4,0
1615918464723527,0,1,19,9,1,8,-1,0
1615918464723527,2,-2,4,19,-2,-8,-1,-1
1615918464738511,-3,-4,-20,-25,-6,-1,-4,-3
1615918464738511,0,2,-7,8,5,5,1,0
1615918464740506,-1,-1,-8,4,1,-3,0,-2
1615918464740506,0,-1,-13,-18,-1,2,-3,-2
1615918464761449,-2,-3,-17,-12,2,-1,-2,-1
1615918464761449,-1,5,36,26,1,2,5,-1
1615918464762432,-1,-3,-20,-25,-2,-5,1,-2
1615918464762432,-2,0,9,2,0,-7,-8,-1
1615918464774478,1,0,18,4,-3,-3,-9,-1
1615918464774478,-1,2,-4,3,-2,2,8,0
1615918464783353,0,1,10,28,1,-1,2,0
1615918464783353,-1,-1,-6,-25,-7,-9,-3,-2
1615918464806221,-2,-1,5,-8,-1,0,2,-3
1615918464806221,1,-4,3,-7,1,0,-2,0
1615918464808218,-6,-6,-3,22,-2,2,-5,-4
1615918464808218,0,4,22,14,2,-1,-1,1
1615918464821206,0,-1,-26,-21,0,5,2,1
1615918464821206,1,1,-3,9,-1,1,-1,-1
1615918464823177,-2,-6,-15,-19,1,0,6,0
1615918464823177,-4,-3,1,-1,-4,-2,-13,-1
1615918464835146,-3,-3,-26,-30,-3,-3,-1,-2
1615918464835146,-1,2,22,54,2,-8,-2,-1
1615918464844121,-1,1,4,-8,1,3,-2,-1
1615918464844121,-1,-2,-11,-2,1,2,4,0
1615918464859080,1,-1,-10,6,-1,1,2,1
1615918464859080,-2,-4,-22,-26,-2,-6,-5,-3
1615918464860078,-3,-4,-7,-35,-5,-1,-3,-1
1615918464860078,4,7,41,54,1,1,11,1
1615918464881166,-1,-1,16,0,-2,3,-7,-3
1615918464881166,-3,-5,-4,-20,-2,-1,1,-1
1615918464883162,2,0,-6,1,-4,-2,-5,1
1615918464883162,4,2,-18,-10,2,3,0,-1
1615918464895130,-6,-4,-7,1,-1,-2,4,-4
1615918464895130,0,4,38,7,0,2,5,0
1615918464904082,-2,-2,8,8,-3,-4,-15,-3
1615918464904082,-3,-4,-8,-17,1,-4,-2,-2
1615918464919042,1,-1,-24,-2,-1,2,2,1
1615918464919042,-1,0,6,9,1,6,1,2
1615918464920039,2,4,3,-5,1,-2,5,0
1615918464920039,-1,-3,-1,2,-3,-4,0,-1
1615918464942013,-2,-6,-11,9,1,5,-1,1
1615918464942013,-4,0,-2,-27,-11,-11,-4,-4
1615918464942977,3,3,22,40,-1,0,-4,0
1615918464942977,-4,-7,-28,-23,0,-4,-7,-1
1615918464954945,0,1,19,-9,-2,-1,13,2
1615918464954945,-1,2,4,28,3,0,-12,-2
1615918464963922,-3,2,1,-23,0,-3,-14,-4
1615918464963922,1,1,3,8,-5,1,4,0
1615918464977909,-2,0,-10,-6,-3,-5,-4,-3
1615918464977909,0,-4,-20,-22,0,-2,5,-1
1615918464984866,0,-2,1,9,1,5,6,0
1615918464984866,-2,0,11,4,2,-4,-7,-4
1615918465000823,0,2,-6,-12,0,0,-3,0
1615918465000823,-2,-2,7,19,4,5,-1,0
1615918465002817,-2,-4,-26,-3,-5,-5,1,-2
1615918465002817,-2,-3,-15,0,1,6,-1,0
1615918465023762,0,3,12,8,-1,2,-1,0
1615918465023762,-1,-2,-9,-20,-2,-3,-1,-1
1615918465024759,-2,-4,1,-3,-2,-2,1,-1
1615918465024759,-1,-1,2,-4,0,4,3,0
1615918465038747,2,3,12,12,-1,-7,-6,0
1615918465038747,-1,-1,-11,-8,-2,1,-2,-2
1615918465039743,-1,-1,-19,-27,2,3,10,1
1615918465039743,-1,0,10,-7,3,4,-8,0
1615918465060687,0,-3,10,-3,-4,-10,-10,-1
1615918465060687,-2,0,6,55,-1,0,3,0
1615918465062658,1,0,-15,-39,-1,6,2,2
1615918465062658,-3,0,17,18,-4,-11,6,-1
1615918465083626,-1,1,6,-7,0,3,-7,0
1615918465083626,-4,-4,-12,-26,0,-7,-2,-3
1615918465085596,-2,0,27,26,-1,3,1,0
1615918465085596,2,-3,-22,-8,0,2,-2,0
1615918465106567,-4,-3,8,2,-5,-1,6,-1
1615918465106567,0,-3,-16,-12,-5,-6,1,-1
1615918465107538,-3,-4,2,-8,-3,-6,-20,-6
1615918465107538,-2,-3,-9,-4,-1,4,3,-1
1615918465121524,-1,-2,-7,4,-1,-2,-3,-3
1615918465121524,-1,-1,9,1,0,4,2,-1
1615918465122498,0,3,0,27,2,-4,2,-1
1615918465122498,-2,-3,-15,-31,-4,-2,-5,-1
1615918465143466,0,3,11,26,3,6,4,1
1615918465143466,-1,-5,-11,-14,-1,-5,-4,-1
1615918465145436,0,6,37,27,2,1,2,-1
1615918465145436,1,3,11,-9,-5,-3,11,1
1615918465158426,1,-2,15,25,3,2,-6,0
1615918465158426,-2,1,-8,-13,0,0,-9,-3
1615918465164308,-2,-6,-16,0,-3,-7,-5,-1
1615918465164308,-2,0,0,8,1,3,1,-1
1615918465181263,-2,-2,-8,-2,2,-7,0,0
1615918465181263,0,-2,-12,-20,3,8,5,1
1615918465182261,-4,-3,9,-4,-3,-5,-1,-2
1615918465182261,-3,-4,-5,11,1,0,-2,-2
1615918465203205,-1,-6,-37,-23,2,0,1,-3
1615918465203205,2,4,40,29,3,0,-1,0
1615918465205199,0,-1,-16,-29,1,2,4,0
1615918465205199,-1,-2,-16,-15,-5,-3,-2,-1
1615918465218165,-4,-5,-7,-3,-4,0,1,-3
1615918465218165,1,0,-6,1,-2,-7,-1,0
1615918465224577,-1,-1,0,-14,1,2,-1,0
1615918465224577,-2,-1,16,18,1,-5,-3,-2
1615918465241534,0,1,10,-2,-2,0,1,0
1615918465241534,-1,3,-1,11,-4,-2,-1,1
1615918465243502,0,-1,-25,-26,-3,-1,2,-3
1615918465243502,0,0,9,2,3,7,0,0
1615918465263472,-2,-5,-9,10,-1,-5,-6,-2
1615918465263472,-3,-1,4,7,-1,2,4,-2
1615918465265443,1,1,12,-5,0,-1,2,1
1615918465265443,-2,1,11,16,-3,-3,-3,-3
1615918465278432,0,1,-5,-16,-3,0,2,-2
1615918465278432,-1,-3,-17,-23,-7,-2,-3,-1
1615918465284392,-1,-3,2,30,2,2,0,0
1615918465284392,-2,-2,4,-20,-4,4,6,-1
1615918465301374,1,0,-2,-14,-5,-6,-1,0
1615918465301374,0,-1,-3,-5,2,-4,-12,-2
1615918465302345,1,1,25,23,0,3,3,-1
1615918465302345,-2,1,-23,-17,-4,-10,-2,0
1615918465323312,0,4,14,11,1,6,1,0
1615918465323312,-2,-3,-4,-9,-2,-1,7,-2
1615918465325283,-2,-4,-21,-11,-4,-2,-14,-1
1615918465325283,0,-3,-5,8,1,-4,-4,-3
1615918465338273,1,2,-2,1,0,2,1,0
1615918465338273,-2,4,10,15,1,5,1,-1
1615918465345258,0,-3,-19,-34,-3,-10,5,-3
1615918465345258,0,-3,-5,-6,-1,2,-7,0
1615918465360701,-1,-3,-2,4,1,0,-4,-2
1615918465360701,0,1,15,-13,1,2,4,1
1615918465362696,2,2,20,29,-1,1,2,0
1615918465362696,-3,-1,0,-10,-1,2,2,-2
1615918465383664,1,5,10,47,0,-4,-2,-1
1615918465383664,-3,-9,-22,-32,-6,-2,-3,-2
1615918465385636,-1,-1,-8,4,0,-1,1,0
1615918465385636,4,4,13,13,1,4,-3,1
1615918465406578,-3,-2,-2,-24,-2,-11,0,-2
1615918465406578,3,-4,-4,8,1,0,-5,0
1615918465407603,-2,0,-2,-3,0,-3,0,0
1615918465407603,0,-3,0,6,0,0,13,-2
1615918465428544,-3,-3,1,-34,-2,0,-16,-2
1615918465428544,4,4,19,18,-2,4,3,1
1615918465430539,-3,-5,-23,-7,2,-4,-5,-2
1615918465430539,0,-1,2,-4,-1,-2,0,-2
1615918465443481,-1,-2,-8,-4,1,1,9,0
1615918465443481,-3,-7,-4,-1,0,-3,-5,-2
1615918465445499,1,5,12,-5,0,5,1,2
1615918465445499,-1,3,14,10,1,2,-3,1
1615918465458441,-2,-6,-18,10,0,-12,-3,-2
1615918465458441,-1,0,-11,9,2,6,-2,-2
1615918465464448,-1,-4,-3,-8,-4,1,0,-2
1615918465464448,0,-3,-20,-13,4,-6,-2,0
1615918465481379,2,5,4,-18,0,4,0,2
1615918465481379,-3,-1,2,18,-1,-3,-1,-2
1615918465482376,-1,-1,-6,-8,-3,-4,-1,1
1615918465482376,-2,-4,-13,-1,1,0,4,-2
1615918465503321,-1,-2,3,-6,-1,-2,-14,-4
1615918465503321,-2,-1,-13,-12,-3,-3,8,0
1615918465505315,3,5,15,22,1,2,-10,-1
1615918465505315,-2,-4,1,-10,-5,-5,-2,-1
1615918465517283,-1,-2,-9,-12,-1,4,7,1
1615918465517283,-1,2,4,4,-3,-2,-5,1
1615918465526259,-5,-5,4,13,1,-7,-1,-4
1615918465526259,2,3,-4,-11,0,5,1,1
1615918465541219,-1,5,35,32,2,3,4,0
1615918465541219,-1,-5,-25,-27,-3,-11,-2,-2
1615918465543214,-3,-4,-18,-12,-1,2,2,-2
1615918465543214,-1,0,24,3,-3,-7,-6,-1
1615918465563160,-1,-1,-2,17,-7,-2,6,-2
1615918465563160,0,-3,-20,-41,-3,-1,0,-1
1615918465565155,-1,5,29,19,-1,-4,-7,0
1615918465565155,-3,-2,-10,15,2,2,-6,-3
1615918465577123,-3,0,5,-14,-2,3,0,-2
1615918465577123,-4,-5,-11,-13,-3,-4,1,-2
1615918465586099,4,3,1,1,1,-1,4,2
1615918465586099,0,-1,1,-6,3,3,1,0
1615918465601087,0,2,17,16,0,2,-4,-2
1615918465601087,-3,-2,17,8,-1,-7,-2,-3
1615918465603055,-1,-7,-33,-2,0,2,3,-3
1615918465603055,0,6,23,17,2,-2,0,-1
1615918465624023,1,-3,-14,4,-3,0,-11,0
1615918465624023,1,1,8,12,2,3,-1,-1
1615918465624995,-4,-5,-7,-26,-5,-12,1,-3
1615918465624995,-1,0,-16,-14,-5,-4,0,0
1615918465636963,-2,-1,13,25,1,1,3,0
1615918465636963,-1,1,3,7,2,3,-5,-2
1615918465645939,-3,-1,4,-20,-9,-6,0,-2
1615918465645939,0,-6,-37,3,1,-1,-5,1
1615918465660899,-3,-1,-1,-25,1,2,1,-2
1615918465660899,0,-1,-14,1,-1,-5,-3,0
1615918465662894,-3,-4,0,2,0,2,4,0
1615918465662894,-1,0,11,-8,-4,-2,-3,-4
1615918465683854,-2,-4,-19,-19,-5,-8,-4,-3
1615918465683854,1,3,11,3,2,4,12,1
1615918465684836,-1,-1,-17,8,1,1,-17,-3
1615918465684836,-1,0,9,13,0,-1,4,2
1615918465697801,0,-3,-15,-25,-1,0,5,0
1615918465697801,-2,-2,0,7,0,-1,-5,-2
1615918465705779,0,5,21,14,2,0,2,0
1615918465705779,-3,-5,-21,-22,-3,-3,-3,-3
1615918465720739,-2,-2,1,17,1,-1,2,-1
1615918465720739,-1,-1,-11,-11,-6,-2,2,0
1615918465722734,-1,-1,-4,-16,-2,2,-1,1
1615918465722734,-5,-3,7,5,-1,-1,-4,-3
1615918465743677,0,-1,8,8,-5,-7,-1,1
1615918465743677,-1,-2,1,12,4,5,-2,-2
1615918465745672,-1,-4,-14,-22,-2,1,3,-1
1615918465745672,-1,0,-10,0,-4,-6,1,1
1615918465773624,-2,1,-19,-10,0,4,-8,-2
1615918465773624,-2,-2,-13,-17,-1,-2,-1,-1
1615918465775617,2,9,41,49,0,-1,2,-1
1615918465775617,-2,-4,-15,-24,-3,-2,-2,-2
1615918465780603,0,-3,3,-7,3,2,5,0
1615918465780603,-1,2,12,9,-1,1,-4,2
1615918465782575,-3,-5,-15,-21,-1,-1,-1,-2
1615918465782575,-2,-1,1,8,3,0,-1,-4
1615918465803542,-2,-3,7,-20,-1,0,-3,-1
1615918465803542,3,5,33,34,2,2,3,1
1615918465805541,-1,-8,-37,-9,-1,1,2,-1
1615918465805541,2,6,47,24,1,-1,1,1
1615918465817481,0,0,-10,-10,1,-3,-15,-1
1615918465817481,-1,2,27,33,-3,-3,-2,0
1615918465826519,-3,-3,-17,-12,-2,-2,-2,-1
1615918465826519,1,0,5,-6,-3,-8,1,1
1615918465841480,-1,-1,4,24,-2,4,6,-1
1615918465841480,-3,-5,-18,-31,0,-4,-4,-2
1615918465842498,1,2,10,3,0,4,1,1
1615918465842498,-3,-3,3,5,0,-1,-7,-2
1615918465863422,-2,0,9,-7,0,-2,2,-2
1615918465863422,2,4,-2,18,4,5,2,2
1615918465865444,-2,-5,-11,-11,-6,0,0,-2
1615918465865444,1,-3,-3,0,2,4,4,1
1615918465877409,-2,-5,-22,-15,0,-1,3,-3
1615918465877409,-1,4,30,10,2,-5,-20,-4
1615918465886361,-2,-4,-1,-25,-3,-2,0,0
1615918465886361,-1,-1,-6,21,-2,7,-2,-3
1615918465901322,0,0,-2,-7,-4,-11,0,2
1615918465901322,-1,-6,-39,-22,-4,3,6,2
1615918465903316,1,7,39,9,4,0,-1,0
1615918465903316,1,0,-16,-23,-1,-5,-3,-2
1615918465923262,2,2,7,23,4,7,5,3
1615918465923262,-3,-5,-7,-32,-1,-3,-1,-4
1615918465925256,0,-1,-1,15,-2,-8,-5,-1
1615918465925256,-1,-5,-3,12,-1,10,8,2
1615918465946202,-2,-3,-5,-4,-4,-2,-11,-3
1615918465946202,-1,-2,-12,-25,-3,-10,-8,-1
1615918465948195,1,3,5,5,5,5,3,1
1615918465948195,-1,-1,10,6,3,4,-2,-2
1615918465961161,2,1,-14,-4,-1,-3,0,-2
1615918465961161,-1,-3,-14,-4,0,5,10,2
1615918465963156,-6,-6,6,-10,-3,-1,-4,-3
1615918465963156,-2,3,2,17,1,-2,-5,0
1615918465984100,-1,-4,-8,13,0,-4,-1,0
1615918465984100,-4,-2,-6,-11,-3,0,-3,-2
1615918465985098,0,-1,-5,-17,-7,-7,2,0
1615918465985098,1,0,12,5,-2,-9,-5,0
1615918466006041,-3,0,7,-8,-2,8,7,-1
1615918466006041,-2,-3,-3,17,-4,-13,-15,-2
1615918466008064,-2,-2,-8,11,2,2,-4,-1
1615918466008064,-2,-2,-5,-30,-7,-8,3,-4
1615918466021998,0,0,-15,5,-2,-2,-6,1
1615918466021998,0,3,11,14,1,4,5,0
1615918466026985,-2,-6,-12,-8,0,1,0,-4
1615918466026985,0,-3,-15,-13,-1,1,-3,0
1615918466042983,2,1,-1,19,4,-2,1,1
1615918466042983,-3,-3,-11,-4,-2,-4,-1,-2
1615918466049964,2,7,57,47,4,7,-3,0
1615918466049964,-2,-2,13,9,-1,0,4,-1
1615918466065946,-1,-1,3,-21,-2,-1,-10,-2
1615918466065946,-3,-7,3,-20,-3,-6,1,-1
1615918466067917,3,6,17,24,0,-3,2,2
1615918466067917,-1,-3,-11,-7,-2,-2,-5,-3
1615918466080907,-2,-3,15,-3,-3,5,1,-3
1615918466080907,1,2,-4,-10,1,-6,4,1
1615918466086890,1,-3,-16,29,2,-2,9,1
1615918466086890,0,-3,-11,-24,0,3,-11,-2
1615918466103845,-1,0,40,41,2,1,9,1
1615918466103845,-1,-2,-7,9,2,7,-18,-5
1615918466104844,-2,-3,-9,-36,-2,-4,-3,-3
1615918466104844,-2,1,11,26,-1,-2,-3,-2
1615918466126713,-1,-2,-16,-27,-5,-3,0,-1
1615918466126713,1,-1,8,21,1,5,6,1
1615918466127713,-1,1,-8,-23,-1,5,-1,0
1615918466127713,0,-6,-32,-15,-3,0,-5,-1
1615918466140702,0,6,27,23,2,-7,-3,-2
1615918466140702,-2,1,5,-2,-2,-4,4,-2
1615918466147684,-3,-5,-30,-51,-2,-4,-6,-2
1615918466147684,1,1,10,35,2,3,5,2
1615918466163617,-1,0,5,-15,1,0,0,-2
1615918466163617,0,-1,1,12,1,-1,7,-1
1615918466165612,-1,-4,-10,-1,-2,-4,2,0
1615918466165612,1,4,7,-16,-2,-5,-10,-1
1615918466186580,-2,-3,5,2,4,6,1,-3
1615918466186580,-1,1,-3,-1,-7,-4,-3,-2
1615918466187553,-3,-1,-2,-8,-7,-5,1,-2
1615918466187553,-1,-5,-13,3,3,-2,3,-2
1615918466200548,0,4,2,11,0,0,-1,2
1615918466200548,-1,-2,2,-1,1,3,3,-1
1615918466207523,-2,-2,-10,-4,-1,3,-5,-3
1615918466207523,-1,-1,-2,-5,-3,-6,3,0
1615918466223481,-7,-5,-20,-12,-4,-2,-3,-4
1615918466223481,1,-2,-17,-23,0,2,-5,1
1615918466225452,4,4,22,28,1,6,0,2
1615918466225452,1,2,3,-7,0,1,-5,0
1615918466246317,0,0,-1,-4,-1,-3,15,1
1615918466246317,-1,0,-3,3,-1,-3,-13,-3
1615918466247317,-2,-1,8,-8,-4,-2,-1,1
1615918466247317,2,0,2,3,-1,1,2,0
1615918466260310,-2,-3,-10,-4,-3,-5,-6,-3
1615918466260310,-1,-3,-15,-5,-1,4,4,-1
1615918466269293,-1,-2,0,5,-4,-10,-21,-3
1615918466269293,-2,-1,1,0,-2,0,6,1
1615918466284065,1,-2,-17,-25,-2,-1,-2,-1
1615918466284065,-2,-4,7,8,-1,1,0,0
1615918466285065,0,1,15,-5,-3,-11,4,-2
1615918466285065,-5,0,23,7,-3,0,-8,-4
1615918466306007,4,2,2,6,-4,6,-2,2
1615918466306007,-2,-2,5,10,-5,-13,8,-1
1615918466308027,-3,-5,-27,-17,-1,-4,-11,-2
1615918466308027,-3,-2,-3,10,0,-3,0,0
1615918466328972,2,8,20,33,0,0,-15,0
1615918466328972,-2,0,0,-18,-1,6,0,0
1615918466329943,2,-3,-7,14,3,2,6,1
1615918466329943,-3,-4,4,-21,-5,0,3,-2
1615918466350888,0,1,13,18,2,-6,-2,-1
1615918466350888,0,1,11,5,-2,-5,0,-3
1615918466352883,-1,0,-18,-1,4,2,-2,0
1615918466352883,-1,-2,-22,-13,0,1,-3,-1
1615918466365871,-1,-6,-17,-14,-1,0,2,-3
1615918466365871,2,2,6,1,-2,-5,2,0
1615918466367842,-2,2,24,18,2,10,7,1
1615918466367842,-3,-2,-12,2,-3,-10,-2,-4
1615918466380831,-5,-2,-18,-41,-2,-4,-11,-2
1615918466380831,0,1,3,37,0,7,-2,0
1615918466387789,2,1,-5,-15,-1,-4,1,2
1615918466387789,-1,-1,-14,8,5,2,0,0
1615918466403770,-3,-3,21,-9,-5,-2,3,-1
1615918466403770,-1,-2,-24,-8,-1,5,1,-1
1615918466405741,-2,-3,-11,-16,0,5,-2,-4
1615918466405741,0,0,4,-10,2,-2,-4,4
1615918466425687,1,-1,19,18,-2,-5,-2,1
1615918466425687,-3,-2,7,0,-2,0,-4,-4
1615918466427682,-1,-1,8,17,-2,-6,0,-1
1615918466427682,-1,1,9,-14,0,4,4,0
1615918466439650,-2,-4,-12,-5,3,1,8,-2
1615918466439650,-2,4,37,7,-3,-2,-19,-2
1615918466448626,-4,-7,-22,-14,-4,-10,-1,-1
1615918466448626,-2,-1,6,7,1,5,0,-1
1615918466463585,-2,-4,-6,0,-5,-9,0,-1
1615918466463585,0,2,-6,5,2,5,7,0
1615918466465580,-3,-3,-21,-19,-1,-5,-7,-4
1615918466465580,0,2,22,18,-4,-1,-4,-1
1615918466486518,-3,-5,-41,-40,-3,-4,-1,-2
1615918466486518,2,2,49,42,2,-1,4,2
1615918466487546,0,-3,-25,-18,1,7,-2,0
1615918466487546,0,4,19,33,0,-2,2,-1
1615918466499483,1,5,24,4,3,2,-3,1
1615918466499483,0,-4,-32,-37,-5,-12,5,-2
1615918466508484,-2,-1,7,20,2,0,-14,-5
1615918466508484,-2,-1,8,-5,-2,0,-3,-2
1615918466523419,1,-2,-25,-13,-2,0,0,1
1615918466523419,-2,0,10,-1,3,5,0,-2
1615918466525414,-1,0,0,16,0,-2,3,1
1615918466525414,-1,-3,-2,-5,-2,-3,1,-1
1615918466546050,2,1,11,19,0,0,-2,-2
1615918466546050,-2,-1,-22,-20,-1,-3,0,-1
1615918466548047,0,-3,-14,-19,-1,5,-3,0
1615918466548047,0,2,8,-4,-4,-5,2,0
1615918466559388,-3,-5,-24,-13,-2,-5,4,1
1615918466559388,1,7,12,24,-2,-4,-16,-3
1615918466568366,0,0,-6,-2,-2,4,6,1
1615918466568366,-1,-3,-13,-2,2,2,2,0
1615918466583325,-2,-4,-19,0,1,-1,2,0
1615918466583325,-2,-5,-8,5,-5,-4,-3,0
1615918466585321,-1,0,0,-16,-3,4,1,-3
1615918466585321,2,3,3,2,1,-5,-2,0
1615918466606264,-5,-5,6,11,-3,-1,-4,-4
1615918466606264,-2,-2,-8,-9,1,2,0,0
1615918466608259,0,3,9,16,2,2,3,-1
1615918466608259,-1,-5,-34,-12,-4,-1,-6,-3
1615918466628205,-2,2,13,-21,0,3,3,-3
1615918466628205,1,1,15,-4,0,-4,-4,0
1615918466630199,1,2,14,34,2,-1,-1,2
1615918466630199,-2,-2,-12,-12,-2,-5,-4,-3
1615918466643189,-1,-2,6,-6,-2,-6,-5,-2
1615918466643189,-4,-7,-20,6,1,6,6,-3
1615918466645160,0,-2,-2,2,-4,-3,2,-2
1615918466645160,1,4,17,-8,-3,2,-2,1
1615918466666104,1,-2,-18,4,-5,-8,0,0
1615918466666104,-2,0,-4,-14,-1,2,4,1
1615918466668099,0,1,25,6,-2,-1,3,0
1615918466668099,-2,2,5,6,-1,-3,-4,-2
1615918466680046,0,0,5,-4,-4,-3,-5,-1
1615918466680046,0,-6,-28,4,-2,0,-2,-1
1615918466688681,-2,3,16,2,-1,-5,0,-2
1615918466688681,0,-1,21,19,-2,-1,2,1
1615918466703668,-2,3,1,-4,-1,6,2,0
1615918466703668,-2,-2,-2,-7,2,-10,-9,-3
1615918466705638,-1,-2,-8,-3,-4,-6,-1,-2
1615918466705638,0,-1,-13,-10,0,-2,1,-2
1615918466726611,1,-1,4,3,1,5,-3,-1
1615918466726611,1,0,5,-1,1,8,7,0
1615918466727580,-2,-1,7,0,-5,-10,-4,-2
1615918466727580,-2,2,5,-30,1,0,-11,-1
1615918466748548,-1,1,11,50,5,4,3,-3
1615918466748548,0,5,4,-16,-1,-1,7,2
1615918466750518,-1,-3,-18,-27,-2,2,5,0
1615918466750518,2,1,6,18,0,2,-2,-2
1615918466763507,-3,-4,0,2,1,-1,-3,-2
1615918466763507,-1,-1,-2,11,-1,1,0,-1
1615918466765502,1,4,15,8,-1,0,-6,0
1615918466765502,0,-6,-19,-14,-2,-7,-3,-1
1615918466785863,0,-1,-20,-1,-3,-7,-4,-1
1615918466785863,-1,-1,-15,-6,-2,-4,5,0
1615918466787857,-4,-2,18,12,-2,-2,-11,-1
1615918466787857,-1,-3,-24,-39,-1,1,6,0
1615918466799824,1,3,22,31,-1,-4,-17,-1
1615918466799824,-1,-5,-21,-22,-2,-5,0,-3
1615918466808801,-1,2,32,20,4,4,4,-2
1615918466808801,-3,-4,-14,-6,-4,-4,3,1
1615918466823761,-1,-2,2,-3,2,5,2,2
1615918466823761,-2,0,2,-15,-2,-1,-5,-2
1615918466824758,-1,-3,-18,-21,-2,-2,-1,-2
1615918466824758,1,2,21,19,-2,0,-4,-1
1615918466845726,-2,1,-6,31,5,2,4,-1
1615918466845726,-1,0,17,-5,-1,2,-5,-1
1615918466847698,-3,-2,0,7,-1,-6,5,1
1615918466847698,-2,0,-6,-10,-4,3,-11,-3
1615918466860662,-2,-2,-21,-27,1,4,0,0
1615918466860662,-2,-3,-8,8,-4,-16,6,-1
1615918466868642,1,3,1,4,-2,1,-13,2
1615918466868642,-1,-4,-12,-13,0,-2,-1,-1
1615918466883600,-2,-1,5,13,-5,-2,-2,-2
1615918466883600,2,3,17,-1,3,6,-1,1
1615918466885596,-2,-3,-9,-19,-2,-4,5,-1
1615918466885596,-2,0,11,-2,-3,0,3,-1
1615918466906540,-1,-4,0,5,-3,-2,-3,-1
1615918466906540,-1,1,-7,-18,1,-4,-4,-1
1615918466908535,-1,-3,-14,13,0,-1,2,-2
1615918466908535,1,4,-1,-4,3,6,3,-1
1615918466928481,0,-3,3,-15,-10,-8,-13,-3
1615918466928481,0,-3,0,-12,-1,1,4,-2
1615918466930476,-2,-2,0,12,-1,2,1,-1
1615918466930476,-1,-4,-12,5,-3,-6,2,0
1615918466943441,-2,-1,-7,-21,2,3,3,-2
1615918466943441,-1,4,23,29,-1,-3,-5,1
1615918466945436,-3,-6,-17,-36,-4,2,-4,-3
1615918466945436,-1,0,3,10,2,1,3,0
1615918466966379,0,1,2,-34,0,-2,2,0
1615918466966379,0,2,19,52,3,5,-6,0
1615918466967377,0,0,1,-9,-1,-1,6,-2
1615918466967377,-6,-8,-18,-21,-3,-12,-15,-5
1615918466988347,2,3,3,0,-2,6,9,3
1615918466988347,-2,-3,-17,-25,-1,3,-10,-2
1615918466991313,-1,4,-5,0,0,2,3,0
1615918466991313,-1,-3,10,27,1,7,4,0
1615918467003281,-3,-1,14,-5,-4,-14,2,-3
1615918467003281,-2,0,11,11,1,7,0,0
1615918467005276,2,0,-12,-20,-2,-10,-6,0
1615918467005276,1,4,9,19,0,6,4,0
1615918467026243,-1,0,18,17,2,0,2,1
1615918467026243,-3,-3,-9,-19,-1,0,-1,-4
1615918467028240,-2,-7,-30,-15,0,0,-3,-1
1615918467028240,1,2,4,8,-2,-3,0,1
1615918467049191,-1,0,-9,7,3,-1,-3,-1
1615918467049191,0,-1,-9,-5,-4,0,3,0
1615918467050192,-2,-1,-8,-10,-4,-6,-12,-2
1615918467050192,-4,-7,4,-5,0,-2,4,-3
1615918467063157,2,3,-1,21,0,1,4,-2
1615918467063157,0,-4,-17,-28,-4,-3,-6,2
1615918467070162,0,-1,-1,29,2,5,6,1
1615918467070162,-2,-4,-4,-20,-4,-4,-2,-3
1615918467086095,2,2,-11,-2,3,4,4,0
1615918467086095,1,-1,4,7,0,-4,-2,-1
1615918467088090,-1,1,18,7,-4,-10,-2,-1
1615918467088090,-1,-1,-7,1,0,0,3,0
1615918467109034,-2,-2,-1,-11,-4,1,-1,0
1615918467109034,-1,-4,-27,-13,-5,-11,-2,-3
1615918467110031,-2,-2,-7,33,1,5,3,-3
1615918467110031,-2,-6,-9,-39,-5,-3,-12,0
1615918467123021,-3,-1,-4,12,-1,2,1,-4
1615918467123021,0,3,-18,-2,3,1,1,1
1615918467129977,-2,-2,1,-12,-1,1,-2,1
1615918467129977,-2,-1,-15,-15,-3,1,12,-1
1615918467145962,-2,-8,-19,14,3,-7,-8,-2
1615918467145962,-2,-1,5,-15,-3,-2,-1,-1
1615918467147930,-1,-2,5,1,-1,-3,-1,0
1615918467147930,1,2,3,6,1,4,1,2
1615918467168899,1,0,-17,-29,0,-3,3,1
1615918467168899,-1,-4,8,9,-6,-5,-3,-3
1615918467169899,2,3,13,15,2,3,6,-1
1615918467169899,1,4,20,28,1,-2,-17,0
1615918467183834,-2,-3,5,-5,-4,-4,-1,-1
1615918467183834,-3,-2,8,15,2,7,2,0
1615918467189846,2,1,3,-4,1,-1,-1,-1
1615918467189846,-2,-3,-11,19,2,2,-2,-1
1615918467205799,1,5,1,2,-1,-4,0,1
1615918467205799,-3,-5,-14,-17,-5,-8,-2,-2
1615918467207770,-2,-3,-7,-22,-3,5,-2,0
1615918467207770,-2,-3,-12,13,2,-2,-5,-5
1615918467228713,3,5,2,-14,0,-3,7,5
1615918467228713,-4,-3,11,13,3,0,-12,-3
1615918467230735,-2,-4,-11,-21,-4,-3,-4,-1
1615918467230735,1,2,13,16,0,1,1,1
1615918467242676,-3,-5,-17,-19,-1,1,4,-3
1615918467242676,4,4,13,7,2,-3,-8,1
1615918467249681,-3,-1,-2,-3,0,1,-1,-2
1615918467249681,-1,-2,9,-11,-1,-2,2,-1
1615918467266646,1,0,28,18,-2,2,-1,-2
1615918467266646,-2,-1,-18,-3,1,-2,4,0
1615918467267644,0,0,22,-9,1,6,-5,0
1615918467267644,0,5,9,9,-5,-20,1,-1
1615918467289163,-5,-3,-1,20,-2,2,-7,-2
1615918467289163,-1,-4,-14,-3,-3,-1,2,-1
1615918467291160,-1,-1,1,-5,5,5,1,-1
1615918467291160,-1,-5,-15,-16,-2,-5,3,-2
1615918467303155,-1,1,10,-13,-2,3,10,0
1615918467303155,-3,-1,-7,-3,0,-5,-30,-3
1615918467310109,-1,-3,-10,-15,-1,0,2,-2
1615918467310109,3,2,38,22,1,0,2,3
1615918467326118,-1,-3,-6,8,1,-5,-3,-1
1615918467326118,-1,0,1,-1,1,11,16,-1
1615918467328112,7,3,-10,-4,-3,-8,3,2
1615918467328112,-5,-2,6,11,0,3,-4,-4
1615918467349056,-3,-3,-11,-9,-3,-5,-9,-3
1615918467349056,1,-2,28,2,-1,-5,4,0
1615918467350053,-1,3,-11,11,-2,-3,-4,1
1615918467350053,-2,-4,-17,-15,2,7,10,0
1615918467370998,-2,0,19,16,1,1,-14,-3
1615918467370998,1,4,2,3,-2,-4,4,0
1615918467372993,-4,-4,-9,-10,-3,-5,-1,-3
1615918467372993,-1,0,-2,-10,-3,-4,-5,-2
1615918467393522,-3,-4,-27,-6,-4,5,8,-2
1615918467393522,1,3,13,17,2,3,-7,1
1615918467396515,-4,-2,12,10,-1,-7,-2,-4
1615918467396515,1,-1,-18,-6,1,2,-2,-1
1615918467416463,-4,-6,-21,-29,-4,-4,-5,-2
1615918467416463,2,2,22,20,2,6,9,-1
1615918467417435,-1,-1,2,11,2,-4,-5,-2
1615918467417435,0,-1,-14,-10,1,1,-5,-1
1615918467422446,-3,-3,-8,-5,-2,-7,2,-3
1615918467422446,-3,-2,11,-11,0,-4,-10,-2
1615918467438403,1,1,-6,-14,0,1,-1,1
1615918467438403,-3,0,4,31,-1,4,0,-2
1615918467446381,1,3,7,-3,2,-1,-2,-1
1615918467446381,-2,-2,-10,-7,-6,-3,6,-2
1615918467447378,3,0,11,8,4,7,2,2
1615918467447378,-1,-2,-20,-14,-3,-9,-5,-2
1615918467468299,2,3,28,11,1,3,2,0
1615918467468299,-2,-4,-22,-26,-2,-4,0,-1
1615918467470293,-1,-5,-37,13,-2,4,-4,0
1615918467470293,2,6,47,7,-1,-6,-1,-2
1615918467482261,-2,-5,-30,-36,-3,3,9,-2
1615918467482261,1,0,11,-4,0,0,-9,-3
1615918467491237,-4,-2,6,25,-1,-8,-18,-6
1615918467491237,-1,-4,-10,8,1,9,4,1
1615918467506222,-1,4,14,-8,-4,-8,0,2
1615918467506222,-1,-4,-14,-20,1,3,7,-3
1615918467508216,-3,-3,1,24,-4,-4,3,-2
1615918467508216,1,1,-7,-22,-3,0,-3,0
1615918467529165,0,-1,0,11,0,-2,-6,0
1615918467529165,-2,-3,3,15,-1,-2,3,-2
1615918467530133,-2,3,29,0,-1,-1,-3,-1
1615918467530133,0,-1,-14,-5,-1,0,5,1
1615918467542125,1,-1,-7,-5,3,3,-9,-3
1615918467542125,-1,4,0,7,0,1,4,1
1615918467551103,-1,-1,-3,-4,-2,-3,5,0
1615918467551103,-3,-4,-8,-13,0,2,-3,-1
1615918467566061,1,0,10,1,3,1,3,0
1615918467566061,-3,-4,-2,3,-2,-2,-4,-1
1615918467568032,4,5,10,-8,1,4,3,2
1615918467568032,-1,-2,3,5,0,-1,2,-2
1615918467588982,0,-2,21,21,-2,-2,-9,0
1615918467588982,0,-2,-29,-20,-2,2,4,0
1615918467590994,-2,-2,-2,-14,-1,-6,1,-3
1615918467590994,-2,-3,6,-9,-6,-4,-4,-3
1615918467601941,-1,2,4,5,1,6,3,-1
1615918467601941,-3,-1,1,-7,-2,-6,-9,0
1615918467610941,-3,-7,-26,14,-1,-1,4,-2
1615918467610941,2,6,19,19,5,6,-1,3
1615918467625901,1,-3,-29,-23,-2,-2,-1,-2
1615918467625901,-1,-2,9,-2,-3,2,0,0
1615918467627872,-3,-5,-29,-19,-5,-17,-7,-1
1615918467627872,-1,-3,-4,11,0,5,1,-1
1615918467648843,-3,-3,-12,5,-4,-14,-2,-3
1615918467648843,1,0,-9,-15,-1,0,1,-1
1615918467650810,0,2,12,12,-1,8,6,1
1615918467650810,-4,-6,-35,-38,-1,-5,-2,-3
1615918467662778,0,4,35,28,3,0,-10,0
1615918467662778,-1,1,-4,18,-2,-4,0,0
1615918467671754,1,-2,4,-9,2,3,-2,0
1615918467671754,0,4,9,16,1,-4,4,-2
1615918467685717,3,-1,-15,6,-2,2,-1,-1
1615918467685717,0,-1,-6,-15,-1,-6,0,-2
1615918467692698,1,0,15,21,-1,0,0,-3
1615918467692698,-2,-4,-9,-9,0,-1,-6,0
1615918467716634,1,-1,-9,4,-1,6,-1,1
1615918467716634,-1,-2,5,-6,-2,-8,1,-1
1615918467717632,-2,-4,-18,-26,-3,-2,-1,-5
1615918467717632,1,0,9,23,-5,-5,-2,-1
1615918467722618,-1,0,4,-32,0,5,13,2
1615918467722618,0,1,9,24,3,6,1,0
1615918467738591,-2,0,9,11,-4,-8,-7,0
1615918467738591,-1,-1,-6,-18,1,3,1,-1
1615918467746581,-2,-2,17,-4,-4,-2,0,0
1615918467746581,0,4,2,28,-3,-3,4,0
1615918467747553,-2,-1,-11,-18,-2,-2,0,-1
1615918467747553,-1,-1,2,-4,0,-5,-6,-1
1615918467768497,-6,-8,-47,-18,-1,-3,0,-2
1615918467768497,2,5,16,-3,-2,-2,-5,1
1615918467770490,2,3,21,8,0,1,0,2
1615918467770490,-4,-5,-9,-7,-2,4,0,-3
1615918467782483,0,-1,-15,-14,-5,0,0,-1
1615918467782483,-2,0,3,-11,2,3,2,0
1615918467791434,1,5,30,36,-2,-2,-15,-1
1615918467791434,1,0,-13,-4,0,-1,3,1
1615918467805397,-1,-1,21,16,-1,-1,-7,-1
1615918467805397,-3,-2,-16,-20,0,-9,5,-6
1615918467812378,-3,-4,-17,-9,0,3,3,-1
1615918467812378,2,4,3,-17,-2,6,1,2
1615918467828336,-2,4,30,24,4,-1,-6,-4
1615918467828336,-2,-7,-22,-23,-4,-1,1,-1
1615918467830330,-1,-2,-7,14,1,1,3,-2
1615918467830330,0,3,19,3,-3,0,-7,-2
1615918467851303,1,-3,-22,-15,-1,-2,7,1
1615918467851303,-2,-3,-7,9,-6,0,-21,-2
1615918467853272,-2,0,8,-14,-3,0,4,1
1615918467853272,-3,-5,-7,11,2,-1,1,-5
1615918467866234,2,2,-7,-17,2,2,1,0
1615918467866234,-1,-1,13,2,-1,2,0,-1
1615918467868229,-2,-4,-10,-7,-3,0,-5,-2
1615918467868229,-1,-7,-18,-8,-5,-6,-2,-2
1615918467889173,-3,-1,18,-4,-2,1,-2,-1
1615918467889173,2,0,20,11,4,5,11,3
1615918467891169,-2,0,-1,7,3,-5,-3,1
1615918467891169,-3,3,9,-5,0,-6,-18,-2
1615918467911114,0,-5,-16,-35,-4,1,-1,-2
1615918467911114,-1,4,43,59,1,3,0,-1
1615918467913109,4,6,-2,-4,2,6,8,0
1615918467913109,-1,-2,-3,9,-2,0,6,0
1615918467926074,-2,-1,-8,-12,-3,-5,-5,-3
1615918467926074,-1,-1,-24,-20,-6,-6,-7,-1
1615918467928069,-1,-3,5,-10,3,0,1,-1
1615918467928069,-3,-6,0,9,0,-1,0,-3
1615918467949013,-1,1,0,18,0,2,-2,-3
1615918467949013,0,-4,-21,-16,1,-2,5,0
1615918467950011,2,4,15,23,-1,3,4,0
1615918467950011,-2,-4,-5,-3,-1,2,-15,-2
1615918467970955,-1,-4,-15,-17,-2,-8,9,1
1615918467970955,-3,-1,0,9,-2,-13,-11,-1
1615918467972949,-1,-3,-9,-27,0,3,-1,-2
1615918467972949,-2,-1,5,7,-2,0,8,-1
1615918467985540,2,2,2,5,-5,-4,1,0
1615918467985540,-4,-7,-18,-17,0,5,-4,-5
1615918467992521,-2,2,25,27,0,-4,-2,-1
1615918467992521,0,0,-6,-16,-10,-8,3,1
1615918468016482,-2,-1,15,-1,-2,3,-5,0
1615918468016482,2,5,40,8,3,-2,9,2
1615918468017455,-2,-1,2,28,-5,-2,-15,-3
1615918468017455,1,0,5,-9,-1,-5,1,-1
1615918468031053,-2,-2,-7,15,4,3,1,-2
1615918468031053,-3,-2,-15,8,-5,0,-4,-3
1615918468033050,0,-5,-15,-36,-3,1,7,0
1615918468033050,0,4,7,12,4,2,2,1
1615918468046158,-3,-3,6,6,-3,-10,-6,-1
1615918468046158,-1,-4,-24,-8,0,2,9,0
1615918468052136,1,5,18,-3,-1,-2,-9,0
1615918468052136,-1,0,4,23,-2,-5,-1,-3
1615918468069091,-3,-5,-13,-3,-4,-10,-2,-3
1615918468069091,0,-1,3,-7,-1,6,3,4
1615918468070063,-2,-4,-20,-30,0,-3,0,-2
1615918468070063,0,2,19,-4,1,-1,-1,-1
1615918468091031,-1,1,3,9,2,3,-3,0
1615918468091031,1,1,15,36,0,1,4,0
1615918468094027,-1,-5,-18,-23,0,8,0,0
1615918468094027,0,-3,-10,-20,-1,-10,-2,1
1615918468105966,0,3,24,22,0,-4,-1,1
1615918468105966,-5,-3,-15,-23,-4,1,-4,-4
1615918468111979,0,1,15,14,2,2,4,2
1615918468111979,-2,-1,-14,-4,-1,4,3,-3
1615918468128930,2,0,-5,11,0,-3,-3,1
1615918468128930,3,-2,-15,-12,2,3,0,0
1615918468129927,-2,-2,17,0,-6,-6,-1,-4
1615918468129927,2,0,-20,-21,0,2,0,2
1615918468150847,-2,0,1,49,-1,-6,-2,-3
1615918468150847,0,3,12,-6,1,2,-3,-1
1615918468152842,-3,-8,-36,-29,-3,-2,7,-1
1615918468152842,-2,-3,4,29,-5,-5,2,-2
1615918468165806,-1,0,-4,-22,-1,5,-8,-2
1615918468165806,0,-2,-8,0,-3,-6,-1,1
1615918468179793,-1,-3,-3,-5,-7,-10,-4,-2
1615918468179793,0,-1,0,0,2,2,10,1
1615918468188745,-2,-1,-3,-3,2,11,1,-1
1615918468188745,0,2,12,2,-3,-1,-7,-3
1615918468190764,-1,-1,-10,-10,-1,-3,2,-4
1615918468190764,0,3,13,12,-2,-3,-5,-1
1615918468211708,-2,-1,-4,3,-6,-7,-2,-3
1615918468211708,1,3,-12,-6,4,-1,-2,-1
1615918468212682,-1,-5,-1,1,-4,0,-1,-1
1615918468212682,-3,-6,-30,-32,0,0,-5,-2
1615918468225671,2,5,55,33,2,-3,0,0
1615918468225671,-2,-6,-15,-7,-4,-5,0,-1
1615918468232653,1,3,-9,11,1,2,-2,2
1615918468232653,0,1,9,9,2,2,-2,-1
1615918468248585,-1,-4,-30,-40,-3,0,2,0
1615918468248585,-1,-4,-2,-2,2,-1,-1,-1
1615918468250581,-2,0,13,7,1,-1,-2,0
1615918468250581,-1,0,2,1,4,5,-1,-1
1615918468271547,-1,-4,-1,-10,-5,-6,1,-4
1615918468271547,1,2,4,5,-3,-1,-2,-1
1615918468273518,1,-2,-6,1,9,0,-1,0
1615918468273518,-1,0,4,-4,-22,-5,-1,-2
1615918468285487,-1,-1,-4,-1,1,2,-1,1
1615918468285487,-5,-7,-12,-22,4,-1,-2,-3
1615918468292495,1,7,24,26,-2,-5,0,-2
1615918468292495,0,1,4,11,2,-1,0,1
1615918468308451,-1,0,-11,-7,1,4,-2,0
1615918468308451,-1,-3,-2,-11,5,0,-1,-1
1615918468310420,-1,-3,-2,1,-11,1,-1,-1
1615918468310420,-2,-4,-8,-5,1,-3,-1,-1
1615918468331390,-1,-2,-4,-4,-7,-2,-3,-2
1615918468331390,2,0,4,7,-2,1,0,0
1615918468333359,-1,-2,-20,-14,3,1,-1,0
1615918468333359,-1,-1,-2,-1,3,0,-2,-3
1615918468345351,-3,-2,-2,0,-4,-2,-2,-1
1615918468345351,1,1,5,10,-2,1,-2,0
1615918468354302,-4,-5,-7,-9,9,-7,-5,-4
1615918468354302,1,3,6,0,17,4,1,1
1615918468368269,-1,-2,-3,-9,-20,0,3,0
1615918468368269,-3,-1,0,-4,-4,2,0,-1
1615918468370260,-2,1,-12,7,6,-4,-3,-1
1615918468370260,-1,-1,-15,4,1,-3,-2,-1
1615918468391229,-3,0,2,4,11,4,0,0
1615918468391229,-4,-1,-3,1,-1,-4,-3,-2
1615918468394196,0,-2,-7,-13,-2,4,1,0
1615918468394196,0,-3,-20,2,-3,-2,-3,-2
1615918468414166,-1,-1,1,1,22,-2,1,0
1615918468414166,-2,-3,-14,-8,-38,-6,-2,-2
1615918468415141,-1,1,2,-10,-1,-2,0,-1
1615918468415141,-3,-3,-9,-7,8,3,-3,-2
1615918468436108,-1,-3,2,-1,-21,-6,-2,-2
1615918468436108,-1,0,3,1,4,5,0,-1
1615918468438079,1,-4,-29,-17,-16,-9,-1,-2
1615918468438079,0,-4,4,4,5,1,0,-1
1615918468451046,0,-2,-1,2,4,-4,0,-2
1615918468451046,0,-1,-2,-16,4,-1,0,1
1615918468453063,2,5,4,27,-2,3,1,1
1615918468453063,-1,0,17,-2,0,-5,-1,-2
1615918468464790,-1,0,-6,-8,0,4,1,0
1615918468464790,1,0,2,5,17,-2,0,-1
1615918468473792,-5,-7,4,-7,-15,-1,-1,-1
1615918468473792,2,-1,-2,-1,-16,-7,-4,-1
1615918468488751,0,3,-7,-11,2,4,0,-1
1615918468488751,1,1,4,14,9,-1,0,-2
1615918468490746,-3,-1,25,14,5,-1,-2,-1
1615918468490746,-4,0,-13,-7,-12,3,-3,0
1615918468511690,0,-3,-11,-6,-2,-4,-1,-2
1615918468511690,-2,1,14,13,9,5,0,0
1615918468512663,2,0,0,1,7,0,0,-1
1615918468512663,0,-1,-6,-8,-12,-2,1,0
1615918468525656,0,1,6,-5,12,0,0,-1
1615918468525656,-1,-1,4,10,8,-2,-1,-1
1615918468533607,0,-2,-8,-4,-1,1,0,-1
1615918468533607,-3,-2,2,-6,10,0,-1,0
1615918468548590,-3,-1,1,1,-14,1,-5,-4
1615918468548590,0,2,4,4,5,1,1,-1
1615918468550561,-3,-2,3,-11,-4,-6,-2,0
1615918468550561,-1,-1,7,7,-2,2,2,-1
1615918468571532,0,-5,-16,-6,15,5,0,0
1615918468571532,-1,-3,6,23,-31,-8,-3,-1
1615918468572502,-3,-3,-45,-33,-6,-1,-3,-3
1615918468572502,1,6,42,20,-1,0,0,2
1615918468593645,-3,-4,-11,-13,-13,-3,-2,-1
1615918468593645,0,1,-4,-1,10,1,0,2
1615918468596664,-2,-3,-14,-20,-12,-4,-3,-4
1615918468596664,-2,-3,-2,-3,0,-1,-1,-1
1615918468608602,1,4,11,9,18,8,0,1
1615918468608602,-1,-2,-9,-11,-5,-8,-3,-4
1615918468610596,0,3,22,4,3,6,1,2
1615918468610596,-1,-3,-11,0,-15,-7,-1,-2
1615918468631540,0,1,18,8,11,0,-1,-1
1615918468631540,-2,-2,-17,-21,-7,-1,0,0
1615918468632555,1,3,30,25,10,4,2,2
1615918468632555,1,-2,-9,13,12,2,0,-1
1615918468644506,-2,-1,-17,-9,-20,-8,-1,0
1615918468644506,1,-2,5,-7,2,-5,-2,-1
1615918468653481,0,0,6,2,-18,-3,-2,-2
1615918468653481,-2,0,-2,-10,7,3,-1,-2
1615918468668442,0,-1,7,-2,-22,-5,-1,-1
1615918468668442,-1,0,2,6,3,3,1,-2
1615918468670437,0,-1,-1,2,10,-3,0,-1
1615918468670437,-2,-1,-5,-7,3,-4,-2,0
1615918468691380,0,-1,-11,8,-10,1,-2,0
1615918468691380,0,2,20,-5,-6,-4,-1,0
1615918468693375,1,-1,-13,-6,1,0,1,-2
1615918468693375,0,-3,0,3,11,2,-3,-2
1615918468705367,0,-2,-2,4,2,0,-2,0
1615918468705367,-1,1,10,9,-6,4,0,0
1615918468714346,-1,0,5,2,1,4,1,3
1615918468714346,0,-2,-10,-9,3,0,-2,-1
1615918468728305,0,0,2,-3,5,-1,-1,-2
1615918468728305,-2,-3,-16,-9,-2,1,-3,-1
1615918468730276,-1,-2,5,-3,8,-3,-3,0
1615918468730276,-1,-1,-5,4,-31,1,1,0
1615918468751220,-1,-2,24,4,10,-3,-3,-2
1615918468751220,0,3,-4,2,-2,1,2,-1
1615918468753215,-3,-2,0,6,2,2,0,-1
1615918468753215,0,-1,-2,-16,0,-5,-1,-2
1615918468765182,-1,1,0,5,3,-1,-2,-1
1615918468765182,-1,-2,-7,-3,-5,-2,0,0
1615918468774159,-2,2,6,8,11,5,-1,-2
1615918468774159,-1,-1,-4,-1,-9,-3,-2,0
1615918468789143,-1,1,0,1,8,0,-1,0
1615918468789143,-1,-2,-14,-12,-17,3,0,-1
1615918468791114,-2,-3,-4,3,-3,0,-1,-3
1615918468791114,-2,-3,-4,0,-10,-11,-4,-1
1615918468811084,1,5,20,3,23,1,2,-1
1615918468811084,-10,-2,6,11,-18,0,-1,-4
1615918468813055,10,-1,-7,-26,-9,-2,0,2
1615918468813055,-3,-3,-53,7,11,-2,0,-1
1615918468834000,2,3,66,39,1,2,-1,1
1615918468834000,-7,-4,-15,-39,3,-9,0,-3
1615918468834996,-2,-1,-1,7,-24,-4,-2,-2
1615918468834996,4,1,2,-6,5,2,1,0
