timestamp,emg1,emg2,emg3,emg4,emg5,emg6,emg7,emg8
1615918136029968,2,3,7,4,23,13,4,3
1615918136029968,-4,-1,-22,-3,2,-4,-2,-2
1615918136031960,-1,-4,-1,2,4,0,-1,1
1615918136031960,-2,-4,5,-2,-6,-1,1,-1
1615918136052900,0,3,-3,-1,-1,4,0,2
1615918136052900,-1,-9,-31,-5,-9,-7,-1,-3
1615918136053903,0,6,5,0,4,3,-3,-3
1615918136053903,1,-10,0,4,8,-1,3,2
1615918136065869,-1,10,14,3,-2,-12,-7,-2
1615918136065869,-1,-8,-51,-6,0,0,1,-4
1615918136074846,-4,-1,13,-3,-6,-4,-5,-2
1615918136074846,1,8,59,10,11,8,6,0
1615918136089866,-2,-4,-9,-2,1,-5,2,-3
1615918136089866,0,0,-20,-4,-12,-10,-6,0
1615918136091860,0,1,4,-4,-5,3,2,-2
1615918136091860,-2,-4,-22,-2,4,-18,-4,-3
1615918136112336,-3,-7,-10,-3,3,12,-1,1
1615918136112336,-2,6,9,0,-3,5,1,-1
1615918136114326,2,3,16,3,-6,-5,3,1
1615918136114326,-1,-7,-42,-7,1,6,1,1
1615918136126305,-2,-2,8,1,-19,-3,-5,-4
1615918136126305,-2,-1,-14,-2,33,-4,-6,0
1615918136135256,-1,-3,-11,3,-5,1,-1,0
1615918136135256,-2,2,16,-1,-9,6,0,1
1615918136150214,-2,1,7,-5,-2,-3,1,-1
1615918136150214,-6,-4,-19,-2,0,4,1,-1
1615918136151211,-1,3,18,5,1,-4,-3,2
1615918136151211,0,-6,-32,-1,9,2,0,-1
1615918136172226,-1,0,-3,-2,0,-3,2,-2
1615918136172226,2,5,23,0,-14,2,2,1
1615918136174191,1,-3,-22,-1,12,-4,-4,1
1615918136174191,0,-3,-8,-4,-7,-5,0,-1
1615918136186556,-2,-5,7,-2,4,5,-1,-3
1615918136186556,-1,-11,-35,-10,-1,-4,-1,-3
1615918136195239,3,7,71,11,-6,-20,-7,-3
1615918136195239,-2,4,0,-3,3,6,1,-1
1615918136210573,-2,-6,-1,2,3,2,2,0
1615918136210573,-2,-6,-25,-4,-4,0,1,-2
1615918136212567,-1,-2,-32,-2,-2,4,1,1
1615918136212567,-1,1,-6,-1,6,-4,-4,-2
1615918136232510,-3,2,21,0,-12,-3,-2,-4
1615918136232510,1,-3,10,2,-26,0,3,-1
1615918136234505,-1,5,-7,-6,-6,-2,1,0
1615918136234505,2,-4,-6,5,-2,5,0,0
1615918136246543,0,9,7,-1,10,2,3,2
1615918136246543,-4,-5,-13,-4,-10,-1,-2,-2
1615918136254880,0,3,28,2,0,-3,-2,0
1615918136254880,-2,-9,-49,-8,2,5,1,-3
1615918136269827,0,-4,11,5,5,3,0,0
1615918136269827,1,-1,2,-10,-3,0,-1,2
1615918136271797,-1,-5,19,0,2,2,0,-2
1615918136271797,0,0,-16,-1,10,1,1,1
1615918136291809,-2,-6,-5,4,-6,-5,-4,-2
1615918136291809,2,5,2,-4,-5,-12,-2,2
1615918136299115,0,-6,-30,0,23,9,1,-6
1615918136299115,-1,6,40,5,-9,0,1,-1
1615918136314849,-2,-5,-25,-5,7,-4,-5,2
1615918136314849,1,6,38,8,-8,6,6,1
1615918136316818,-3,-12,-65,-16,-12,-3,-5,-3
1615918136316818,2,8,35,9,-3,-4,-2,2
1615918136328984,1,0,-17,-4,5,3,-1,0
1615918136328984,0,4,13,7,8,0,1,0
1615918136338123,-4,-3,-13,-8,-12,0,2,-1
1615918136338123,-1,-5,-7,-4,23,-2,-3,-1
1615918136352963,-1,-3,-7,-3,3,-3,-2,-3
1615918136352963,-2,0,16,1,-2,-7,-3,0
1615918136353821,2,3,-5,-2,-2,8,3,1
1615918136353821,-1,-3,23,4,0,-2,-4,-3
1615918136375015,1,3,-3,-6,-10,-15,-4,-2
1615918136375015,-2,-2,45,8,11,6,-2,2
1615918136377005,-3,1,-19,-3,2,8,4,-3
1615918136377005,-3,-7,-6,-3,-7,-10,-9,-4
1615918136389131,-2,1,-3,-4,0,12,3,-1
1615918136389131,-2,-3,-42,-2,-4,-13,-2,0
1615918136396320,1,3,14,0,5,3,-1,0
1615918136396320,-3,-2,2,-6,-10,3,5,1
1615918136412120,-2,-5,-19,-2,9,-10,-4,-4
1615918136412120,-1,6,15,1,-7,-2,-1,-2
1615918136414116,-3,-5,2,3,-4,-4,-1,-1
1615918136414116,0,3,-3,-2,20,2,-1,-2
1615918136442261,-2,-4,-3,-4,-7,0,-4,-1
1615918136442261,1,2,19,-1,1,1,-2,-3
1615918136444259,-3,9,11,1,0,0,0,0
1615918136444259,-2,-8,-14,0,-10,-5,-3,-3
1615918136449319,0,0,1,-4,-28,-4,1,-2
1615918136449319,-4,-9,-23,3,13,7,-8,-7
1615918136457173,4,6,15,1,14,-7,2,5
1615918136457173,0,-1,-14,-5,-11,1,1,1
1615918136472501,1,8,58,12,10,0,2,-2
1615918136472501,2,-3,-25,-7,2,-2,1,2
1615918136474496,-3,-3,8,-2,-4,1,-3,-1
1615918136474496,-3,-6,-22,-4,0,0,1,-2
1615918136495345,2,5,32,9,-1,3,1,1
1615918136495345,-1,-2,1,-5,-1,-6,-3,-3
1615918136496370,2,3,-1,0,3,-2,-3,-3
1615918136496370,-3,-5,-19,-5,-1,2,1,-2
1615918136509225,0,2,10,-4,-3,-5,2,1
1615918136509225,0,-1,-18,-2,-2,-6,-8,-2
1615918136516206,-2,-4,-3,-1,-24,-6,0,-2
1615918136516206,2,5,27,4,18,8,1,1
1615918136532901,-1,-8,-38,-3,-12,-4,-3,-2
1615918136532901,0,7,29,-2,-5,2,4,2
1615918136533905,-2,-6,-8,-1,3,-6,-6,-4
1615918136533905,0,-3,-11,-4,-14,0,-3,-2
1615918136555235,-3,-1,-7,2,-6,-1,1,-1
1615918136555235,-1,-7,-33,-4,0,-6,1,2
1615918136557233,-3,-4,-14,-1,15,8,-4,0
1615918136557233,-1,4,17,2,-13,-6,0,-1
1615918136569812,-1,4,-16,-4,9,-1,-7,-1
1615918136569812,-3,0,13,3,-9,2,-1,-5
1615918136576677,0,2,28,3,11,2,1,0
1615918136576677,-3,-7,-18,-4,-5,-7,-2,-5
1615918136592950,-1,-3,-28,-4,5,5,0,1
1615918136592950,0,3,13,0,-2,-5,-3,-1
1615918136593951,2,-5,-9,-2,-14,-1,0,2
1615918136593951,-2,0,-15,-2,17,3,-1,2
1615918136615455,-3,-2,46,3,-8,-1,-1,-5
1615918136615455,-1,-3,-24,-4,1,-3,0,-2
1615918136617159,-3,-5,-2,-7,-16,-10,-4,-1
1615918136617159,4,7,9,6,20,7,4,3
1615918136629830,1,7,28,0,-6,2,-1,0
1615918136629830,-4,-8,-19,-2,14,3,1,-3
1615918136636009,-3,1,-3,1,1,1,1,-4
1615918136636009,-1,-7,-18,0,-11,-5,-3,0
1615918136652975,0,4,-3,0,20,4,1,3
1615918136652975,-2,0,4,-3,-3,1,-1,-1
1615918136653975,2,-1,-11,-1,-3,1,2,2
1615918136653975,-3,-6,-9,-7,-18,-9,-3,-3
1615918136675342,-2,2,29,5,2,-1,-1,-2
1615918136675342,3,3,25,4,-1,2,0,2
1615918136677337,-2,-10,-26,-3,-4,-3,-3,-2
1615918136677337,3,9,9,-1,-12,3,2,0
1615918136689356,1,-2,-21,-1,11,-4,-1,2
1615918136689356,-1,-7,-18,-2,-2,3,2,-3
1615918136696441,0,0,10,-1,6,5,2,-1
1615918136696441,-3,-2,14,0,-13,-12,-6,-2
1615918136712217,3,4,24,0,-8,1,2,2
1615918136712217,0,-2,-14,-3,-2,6,2,2
1615918136719151,-2,0,-6,-3,8,-4,0,-1
1615918136719151,2,-1,-11,7,0,1,0,2
1615918136735333,-2,-2,-4,-1,7,-6,-4,-1
1615918136735333,0,2,6,-1,-6,1,1,1
1615918136736365,-1,-2,10,-2,1,2,-2,-1
1615918136736365,0,8,45,2,-12,-3,1,0
1615918136749847,-3,-9,-29,-1,-9,-2,-1,-4
1615918136749847,0,0,8,-1,4,-1,-3,-2
1615918136757231,-2,-4,-14,2,3,-1,-2,0
1615918136757231,1,-5,-10,-2,3,1,-1,0
1615918136772377,1,0,-5,-3,-3,-2,-1,-1
1615918136772377,-4,1,24,0,-1,-8,-10,0
1615918136774372,1,1,-11,-6,-10,-5,0,-3
1615918136774372,-3,-3,-22,-2,4,3,1,-3
1615918136795395,0,-2,-1,-3,-7,-5,1,0
1615918136795395,-1,-2,-37,-8,1,6,-1,1
1615918136796373,-1,1,45,8,1,2,0,-1
1615918136796373,-1,-2,22,-2,6,-1,-3,0
1615918136809420,0,-2,-21,-2,-2,-4,-3,-1
1615918136809420,-1,0,-21,-4,-2,-4,2,-2
1615918136817397,-3,-8,-1,1,-6,3,-5,-2
1615918136817397,-3,-2,-13,1,11,-6,2,-2
1615918136833013,0,-6,1,-3,-8,3,-1,1
1615918136833013,-2,2,28,4,0,-11,-2,-2
1615918136834013,0,4,-3,0,0,6,4,0
1615918136834013,0,-1,3,-3,0,0,-2,0
1615918136855166,-1,-6,-13,1,3,4,1,-1
1615918136855166,-1,-4,-17,-2,-11,-6,0,-1
1615918136857172,2,4,24,9,11,8,-1,0
1615918136857172,-4,-9,-25,-11,-23,-8,-3,-1
1615918136869129,-1,12,44,8,-3,1,-2,0
1615918136869129,-1,5,28,1,0,-1,1,0
1615918136877351,1,0,-13,-2,-2,-6,0,-1
1615918136877351,-2,-5,-15,-3,2,8,-2,-1
1615918136892427,0,-4,-7,-2,5,-1,2,-1
1615918136892427,-1,-2,-24,-4,-7,5,-1,-1
1615918136893758,-2,0,-2,0,-3,-14,-10,-2
1615918136893758,0,4,17,1,2,2,4,-1
1615918136915233,-6,-14,-38,-10,-8,-3,-3,-3
1615918136915233,2,11,29,11,9,-4,3,-2
1615918136916206,-2,-4,-5,-5,-2,0,0,1
1615918136916206,-2,-4,-6,-1,1,2,-2,-1
1615918136929183,-2,-5,-29,-1,2,0,-2,-2
1615918136929183,-1,0,1,-8,1,5,3,-1
1615918136937352,-1,3,37,14,14,12,-2,0
1615918136937352,2,1,-20,-1,-8,-25,1,-3
1615918136952876,-4,-3,-8,0,-5,6,-1,-1
1615918136952876,0,-5,-21,-4,-4,-1,-2,1
1615918136953881,2,0,-1,-1,-15,0,5,1
1615918136953881,-1,-1,0,0,-6,7,-5,-2
1615918136975519,-1,0,1,-5,3,-9,-3,-2
1615918136975519,-2,-6,-9,1,-5,1,0,-1
1615918136976517,0,-6,-41,-10,-5,-9,1,-2
1615918136976517,-2,7,61,5,6,2,0,0
1615918136988482,2,0,-18,-5,-8,-2,-1,0
1615918136988482,-4,-9,-27,-2,0,2,-4,-1
1615918136997255,-1,2,39,2,-14,-9,0,-2
1615918136997255,-2,0,-6,-8,3,0,1,-1
1615918137012514,2,1,21,4,8,7,1,1
1615918137012514,0,-4,-27,-1,-27,-9,-1,0
1615918137014494,-3,-7,-38,-6,21,6,-4,-3
1615918137014494,-1,-1,-22,1,-9,-9,3,0
1615918137034437,0,4,39,4,3,6,-1,-3
1615918137034437,1,0,3,0,13,-4,-1,-1
1615918137041419,-2,-1,-7,-4,-3,-8,0,-1
1615918137041419,-1,-9,-32,-5,1,2,-1,1
1615918137048423,0,17,59,8,0,-1,4,-3
1615918137048423,-2,-5,-19,1,4,8,-2,-2
1615918137057375,-2,0,-14,-4,1,-10,-4,-1
1615918137057375,2,-1,9,1,-5,-1,1,2
1615918137072336,-2,-4,-42,-10,-3,-4,-3,-3
1615918137072336,-2,-3,22,-1,4,5,1,-1
1615918137074329,0,4,10,-1,-13,-10,-5,-1
1615918137074329,0,-1,-10,2,3,-2,0,1
1615918137095274,-3,-8,-10,-4,0,3,0,-1
1615918137095274,1,3,13,-1,6,2,-5,2
1615918137096271,1,2,17,4,-6,-7,2,0
1615918137096271,-1,6,12,2,6,1,-1,0
1615918137108239,-3,-3,-19,0,4,-1,-1,2
1615918137108239,0,1,10,4,9,-3,2,-5
1615918137117214,-2,-8,-24,-4,-4,-1,1,-2
1615918137117214,-1,1,-25,0,5,2,-3,-1
1615918137132174,-2,-6,18,2,-11,-8,-4,-2
1615918137132174,0,4,-3,-3,3,1,2,0
1615918137134169,-1,-2,-15,-2,0,3,-3,-1
1615918137134169,-1,1,26,8,-4,3,-3,-1
1615918137155114,-3,-5,-36,-7,2,1,1,-1
1615918137155114,-5,-6,-2,-4,-6,-4,2,-1
1615918137157108,3,7,16,3,7,5,-2,1
1615918137157108,-2,-6,-7,-8,-6,4,1,-4
1615918137169076,1,3,4,1,-1,-2,0,0
1615918137169076,0,-5,-4,3,-8,-16,-7,-2
1615918137178051,-3,-4,-21,-8,5,12,5,0
1615918137178051,-1,-2,43,2,-2,-3,-4,0
1615918137192014,-1,1,21,0,5,1,-1,1
1615918137192014,0,2,-5,3,1,2,1,0
1615918137194009,-1,-6,-8,-3,-3,-2,1,-2
1615918137194009,-2,-3,-7,-4,-6,-7,-3,-2
1615918137215260,1,-1,-16,4,10,-2,-1,-3
1615918137215260,-1,-2,-6,-9,-10,7,3,2
1615918137216264,0,10,39,8,-9,-4,1,0
1615918137216264,-3,-12,-33,-6,6,-2,-9,-4
1615918137228302,3,17,63,5,0,4,0,2
1615918137228302,-3,-6,-26,1,13,4,-1,-2
1615918137237320,-2,-6,-21,-7,-17,-3,5,0
1615918137237320,0,3,29,2,-3,3,1,-3
1615918137252932,-2,-12,-39,-4,-3,-18,-1,-3
1615918137252932,2,11,9,-4,-5,7,-1,1
1615918137253939,0,7,57,9,16,7,1,1
1615918137253939,-4,-4,-28,-4,11,9,1,-1
1615918137274878,-1,-1,8,-2,-10,-19,-3,-1
1615918137274878,0,0,8,5,3,3,-6,-2
1615918137276873,-4,-14,-43,-9,-6,-7,-1,-4
1615918137276873,2,13,13,0,-16,1,2,3
1615918137297390,0,-11,-33,-5,18,9,1,0
1615918137297390,1,3,18,5,-5,-2,3,1
1615918137299391,-1,0,-24,-4,-2,3,-3,0
1615918137299391,0,-3,-15,0,-4,3,0,-1
1615918137312832,-6,-7,-12,-9,-34,-6,-2,-2
1615918137312832,-2,-3,7,4,12,-5,-2,-3
1615918137313829,-1,1,1,-1,-1,-1,-5,0
1615918137313829,4,5,18,3,10,0,1,0
1615918137334805,-1,0,-1,-1,-2,10,0,-2
1615918137334805,0,5,-2,-5,5,-16,3,0
1615918137336802,-3,-7,-14,0,-10,1,-9,-2
1615918137336802,-2,4,24,0,5,-3,-1,-2
1615918137357829,-3,-9,-20,-3,-1,1,-1,-4
1615918137357829,1,8,34,4,-3,3,-1,2
1615918137358826,-1,-4,-4,1,9,-1,1,-1
1615918137358826,-1,2,-13,-6,-9,-2,2,0
1615918137372368,-1,-1,7,5,2,-7,-1,1
1615918137372368,-2,-1,24,5,5,0,-1,-2
1615918137374359,0,4,-3,-8,-7,-3,-2,0
1615918137374359,-1,-1,-6,-1,-4,-7,-2,-2
1615918137395399,1,-4,-26,-1,-7,1,-2,-1
1615918137395399,1,8,32,2,-15,-1,1,-1
1615918137396371,0,1,26,5,13,1,1,0
1615918137396371,-3,-7,-18,-1,4,-10,-11,-4
1615918137417349,-1,-5,-6,-3,-13,7,0,-1
1615918137417349,-1,3,8,-3,-11,-9,-1,-1
1615918137419326,-2,-9,-46,-6,6,9,0,-2
1615918137419326,0,3,10,1,-14,-5,3,-2
1615918137432325,-2,-5,-33,-5,2,-6,-5,-2
1615918137432325,-2,-10,-24,0,6,8,-3,-1
1615918137438275,2,5,24,3,-4,-1,5,1
1615918137438275,-1,-5,-21,-1,13,-3,0,1
1615918137455312,-2,4,-8,-3,4,4,-1,-3
1615918137455312,-5,-12,-25,-9,-8,-7,-2,-2
1615918137457307,4,8,7,0,-2,2,1,1
1615918137457307,-1,-1,8,4,2,-4,-10,-3
1615918137477348,-3,-1,7,4,5,-6,-2,-2
1615918137477348,1,-3,6,-4,-14,2,-1,-1
1615918137478816,-2,-9,-27,-8,-7,-12,-2,-3
1615918137478816,-1,6,33,6,3,9,3,-1
1615918137492397,0,2,20,-2,5,-5,-4,-1
1615918137492397,1,-7,-34,-1,2,-1,-2,0
1615918137499195,-3,-4,21,7,0,3,-1,-3
1615918137499195,-3,6,10,-5,-11,-1,3,0
1615918137515211,-1,-1,9,4,12,-2,-1,-2
1615918137515211,-1,-3,-8,-2,2,3,-2,-2
1615918137516307,0,2,-25,-4,1,2,4,2
1615918137516307,-3,-11,-18,1,-2,-2,-1,0
1615918137537947,3,26,71,8,-7,-4,-1,3
1615918137537947,-4,-6,-9,-8,-8,-4,-2,-5
1615918137539371,0,0,-20,0,7,5,-1,-2
1615918137539371,2,-8,5,2,1,-10,5,1
1615918137552411,0,-5,-14,-5,3,8,-1,0
1615918137552411,-1,3,-10,-5,-7,-3,-3,-1
1615918137558256,-2,1,22,1,-11,-3,-4,-2
1615918137558256,-3,-2,-11,-2,17,12,3,0
1615918137575332,-1,-4,-9,0,-6,-8,0,-3
1615918137575332,-1,3,0,-3,0,-3,-3,-1
1615918137576329,-3,-11,-17,-7,-6,2,2,-1
1615918137576329,2,12,36,0,3,-7,-10,1
1615918137598117,-2,-5,-15,3,9,13,4,1
1615918137598117,-3,-10,-4,-4,-17,-2,1,-3
1615918137599114,-4,4,9,0,14,-7,-2,-2
1615918137599114,1,-3,16,4,-9,5,2,2
1615918137612104,-1,-2,-24,-5,1,-11,-5,-1
1615918137612104,1,3,16,3,-6,-4,1,0
1615918137619096,-1,0,-2,1,-3,0,-3,-2
1615918137619096,0,-8,-30,-7,3,3,0,-1
1615918137642987,0,1,15,3,-7,-3,-2,-1
1615918137642987,-1,-3,-29,-2,16,3,2,-1
1615918137644337,-1,2,25,4,3,-2,-3,-1
1615918137644337,-2,-3,-26,-6,2,-2,1,-5
1615918137657191,0,5,12,-2,-9,-11,-7,-2
1615918137657191,-3,-4,-13,-3,8,-4,-3,-1
1615918137659187,-1,-8,-31,-2,-3,3,1,1
1615918137659187,-3,1,2,-1,-5,-6,2,-1
1615918137671569,-1,-3,11,-3,-1,9,3,2
1615918137671569,-1,7,13,4,6,4,-1,-2
1615918137679222,-1,-4,-8,-5,-8,-7,0,-3
1615918137679222,-1,-6,-26,-4,-2,1,0,1
1615918137695346,2,-4,-28,-4,4,6,1,0
1615918137695346,-1,-4,0,4,13,1,-3,-2
1615918137696345,4,11,26,0,6,-11,0,-1
1615918137696345,-1,1,12,0,-5,0,-2,-2
1615918137717584,-2,-4,2,-1,1,13,4,-1
1615918137717584,0,-4,-11,-1,-14,-5,-9,-2
1615918137718875,-1,-1,3,0,10,5,0,-1
1615918137718875,-1,-2,-3,0,1,-8,0,1
1615918137732396,0,-4,-19,-3,-1,0,1,-3
1615918137732396,-8,-2,-6,-5,-8,1,2,-1
1615918137738928,1,1,41,7,-5,-4,-5,0
1615918137738928,-2,3,-9,-4,-3,1,-2,-3
1615918137754932,0,-1,23,4,0,1,2,0
1615918137754932,0,0,14,-4,-1,-7,-1,0
1615918137757926,0,-2,-32,-4,-8,3,1,0
1615918137757926,-2,-2,10,1,2,0,1,0
1615918137778021,-2,-3,-5,-6,-10,-5,1,-2
1615918137778021,0,1,13,-1,1,4,1,-2
1615918137779032,0,0,-4,0,-7,-5,-4,-2
1615918137779032,-4,-6,-8,4,-2,6,1,-3
1615918137790951,0,5,-7,-7,-4,1,-1,1
1615918137790951,4,10,27,8,5,0,2,0
1615918137800726,-9,-9,-8,-9,-3,-6,0,-6
1615918137800726,1,0,-39,3,13,4,-3,0
1615918137814713,-1,-5,-17,-3,-14,-9,-1,0
1615918137814713,-2,-3,5,5,17,4,0,-3
1615918137816683,1,1,-9,-3,-9,5,-1,1
1615918137816683,0,0,-6,-8,-12,-7,-1,0
1615918137837427,-2,1,29,4,-18,-2,-4,-3
1615918137837427,1,2,-15,-1,-5,-1,3,2
1615918137839325,0,3,34,3,-5,-2,1,0
1615918137839325,-5,-9,-15,-1,-6,6,-4,-5
1615918137851684,1,6,18,3,7,-7,3,1
1615918137851684,-3,-6,-13,-6,-6,2,-3,-2
1615918137859879,1,-3,-10,0,7,4,-2,0
1615918137859879,1,3,-3,-6,-18,-9,0,-3
1615918137875221,-3,-5,-10,-2,13,-3,0,1
1615918137875221,0,0,-3,-1,0,0,-2,1
1615918137876218,-2,0,-11,0,4,4,-1,-4
1615918137876218,-1,0,24,-3,0,2,0,-1
1615918137898060,-2,-6,-23,-2,2,2,-4,0
1615918137898060,1,-1,-9,-5,-7,-7,2,1
1615918137899151,-3,-1,-10,2,8,-1,-4,0
1615918137899151,2,6,20,-3,-12,-3,-1,2
1615918137910853,-2,-1,-49,-3,21,9,3,-3
1615918137910853,-4,-3,55,9,2,0,-3,-2
1615918137920301,0,6,4,-2,-11,-5,-3,-1
1615918137920301,-1,0,0,4,6,-1,3,1
1615918137935340,-1,-1,-8,-5,6,0,-1,-1
1615918137935340,-2,-8,-11,-3,-10,1,1,0
1615918137936379,1,1,0,-1,3,-4,1,2
1615918137936379,1,-8,-22,-1,-3,-2,-3,-2
1615918137957447,0,9,9,5,13,-3,0,1
1615918137957447,-3,-5,-9,-5,-12,-1,-1,-2
1615918137959457,-2,-6,3,-1,-10,-2,1,-2
1615918137959457,-3,-6,-28,-5,4,-3,-1,-2
1615918137971444,0,-1,-7,-5,-13,-7,-9,-2
1615918137971444,5,12,61,13,8,0,6,3
1615918137980270,-4,-7,-28,-5,-4,-10,-1,0
1615918137980270,-4,2,12,1,1,11,1,0
1615918137995551,-1,-2,21,0,-2,0,-2,-1
1615918137995551,-1,-3,-23,-6,-4,-6,-1,-1
1615918137996549,2,-1,4,0,5,2,1,-2
1615918137996549,1,4,4,2,-8,-6,-1,1
1615918138018043,0,1,7,-2,1,7,-1,-2
1615918138018043,-3,3,-20,-4,3,-12,-1,-2
1615918138019676,0,6,51,3,-4,13,3,0
1615918138019676,1,2,16,-2,6,-8,-10,-2
1615918138031738,-2,-9,-21,0,-25,-9,0,-2
1615918138031738,1,4,26,5,8,8,0,1
1615918138040215,-1,-2,0,0,3,-9,-2,-1
1615918138040215,-1,-2,-2,-3,1,4,0,-3
1615918138055225,-1,2,14,2,-10,4,1,0
1615918138055225,-3,-5,-3,-1,2,-5,1,-3
1615918138057230,-2,0,-20,-3,-9,-10,-7,-4
1615918138057230,-3,-5,-2,-4,6,7,-1,-1
1615918138077808,-2,0,0,2,-3,-3,4,1
1615918138077808,0,-3,-51,-5,-8,5,-3,1
1615918138078808,2,9,23,-1,14,9,4,-1
1615918138078808,-1,-1,0,4,2,-12,-3,-1
1615918138091281,-3,-5,6,-5,-8,-4,-6,-2
1615918138091281,-1,-5,-32,-4,6,5,-1,0
1615918138100378,-1,-7,9,-1,-1,-1,-1,-1
1615918138100378,5,15,60,12,2,3,6,8
1615918138115318,-2,-5,1,-3,4,-1,-2,-7
1615918138115318,-2,-4,-19,-1,-4,4,-2,-3
1615918138116287,-3,-7,-15,-2,-21,-4,-1,-1
1615918138116287,-1,2,18,-2,-10,-1,-2,-2
1615918138137260,-2,0,7,1,-8,-11,-1,-3
1615918138137260,0,-3,3,-3,0,-7,-6,0
1615918138139223,-2,-2,-16,-2,7,10,4,-1
1615918138139223,-3,-4,-7,-3,-2,-4,-4,-3
1615918138152187,-1,-4,-25,-2,0,-4,-3,-1
1615918138152187,1,2,22,2,-6,-2,-1,0
1615918138160194,0,-4,-3,2,0,-6,-1,0
1615918138160194,-1,-3,-3,-1,5,4,3,-2
1615918138175125,-3,-3,2,-2,4,8,3,0
1615918138175125,-2,-5,-19,-2,3,-8,-4,-3
1615918138177120,1,7,-12,-1,-3,-3,0,0
1615918138177120,-3,-1,-4,1,4,1,1,-1
1615918138198443,1,-8,-18,-4,6,2,2,3
1615918138198443,-1,6,10,5,0,9,5,-3
1615918138199442,-2,-3,-33,-7,-1,-11,-9,-2
1615918138199442,-3,-6,2,-1,3,1,2,-2
1615918138220367,0,5,-6,-2,0,1,-1,-1
1615918138220367,2,-2,0,-8,-6,0,5,4
1615918138221366,-2,-1,-4,0,0,-3,-2,-1
1615918138221366,1,-5,-8,-4,-1,3,-3,-2
1615918138235330,-2,0,11,2,-16,-8,0,-2
1615918138235330,-3,-6,-39,-7,18,-5,-1,-1
1615918138236379,0,5,79,12,5,14,3,1
1615918138236379,0,-8,-33,-8,1,-3,0,1
1615918138257414,2,7,35,6,-21,0,2,-1
1615918138257414,1,-1,14,1,0,-2,-3,-2
1615918138259408,0,-3,-38,-7,1,-1,-2,0
1615918138259408,-3,0,-16,-2,5,-1,0,-1
1615918138280543,-3,-7,12,-4,-1,5,-3,-4
1615918138280543,0,-1,7,-1,-4,-4,-1,0
1615918138281556,-2,0,5,6,6,-7,-2,-4
1615918138281556,2,3,7,-2,-1,0,1,4
1615918138295411,-1,-1,-33,-3,10,7,-2,0
1615918138295411,-4,-5,-11,-5,-7,-7,-2,-4
1615918138296389,-3,-9,-16,-4,-6,-2,-5,-1
1615918138296389,1,4,-14,-4,-4,0,3,-3
1615918138317429,1,2,16,3,0,-1,-7,0
1615918138317429,-3,0,-7,2,2,5,1,-1
1615918138319405,0,-8,-25,-2,0,-10,2,-1
1615918138319405,1,-1,-3,-3,-4,9,0,-1
1615918138340410,-4,1,0,-2,1,-11,1,0
1615918138340410,1,3,-15,1,-16,5,-2,0
1615918138341409,1,0,12,-2,-14,-1,1,-1
1615918138341409,-3,-4,7,0,-3,-9,-3,-3
1615918138354517,0,-6,-4,0,7,7,2,3
1615918138354517,-2,0,-17,-5,1,-1,-6,-8
1615918138361627,-4,-4,21,0,-6,-3,-1,0
1615918138361627,0,8,28,6,-4,0,1,2
1615918138378094,-2,-10,-21,-5,0,-4,1,-2
1615918138378094,3,6,-1,1,0,1,-3,2
1615918138379676,0,5,6,1,3,-3,-2,-3
1615918138379676,-3,-7,-12,-3,-2,-1,-4,-1
1615918138400554,-2,-6,-10,-3,2,0,0,0
1615918138400554,-2,3,7,0,4,3,6,0
1615918138401553,-2,0,9,-1,-1,2,-1,-2
1615918138401553,-1,-8,-63,-10,1,-1,-5,0
1615918138414104,2,8,44,9,5,-2,0,-1
1615918138414104,-3,-1,-9,-4,-6,0,-1,1
1615918138421089,1,0,-30,-1,3,7,-1,2
1615918138421089,-2,-6,-10,-5,-8,-9,-2,-5
1615918138437744,-1,5,23,4,0,-1,0,-3
1615918138437744,-4,-9,-2,0,0,1,-2,-1
1615918138439062,-2,-4,-8,-4,-1,-4,-1,-4
1615918138439062,1,3,24,0,-1,-1,1,-5
1615918138460056,-1,0,-3,-1,-3,-7,-9,-1
1615918138460056,2,-5,0,0,-2,0,1,1
1615918138462077,-2,4,42,-1,-3,-2,-2,-1
1615918138462077,-3,7,40,14,19,-1,1,-1
1615918138475371,-1,-1,3,-3,12,-3,-1,-1
1615918138475371,-1,-2,8,1,0,-2,-2,0
1615918138481686,1,0,-39,-5,-1,3,3,1
1615918138481686,-2,0,33,5,6,1,-3,-1
1615918138497973,-4,-1,-11,-4,-9,-3,-5,-3
1615918138497973,0,-6,-5,-1,-1,-4,0,-2
1615918138498978,-2,-5,-4,-2,-2,3,1,-1
1615918138498978,4,9,14,-1,-2,4,7,2
1615918138520239,1,0,11,0,-7,-1,-6,-1
1615918138520239,-6,-3,-25,-11,-12,-12,-4,-4
1615918138522202,1,0,18,4,-3,2,1,2
1615918138522202,0,-2,0,1,-2,8,-1,-4
1615918138534168,-1,-2,-9,-2,-3,-9,1,-2
1615918138534168,0,5,16,1,-4,8,-1,2
1615918138541177,-2,-4,-23,-8,1,-4,-5,-4
1615918138541177,-4,-6,-20,-1,4,5,0,-1
1615918138557450,-1,0,-12,-5,-2,1,0,0
1615918138557450,-1,0,41,8,-4,-16,-5,-2
1615918138559420,-2,-2,-31,-4,0,2,4,-2
1615918138559420,3,0,5,-3,-1,-3,-4,-1
1615918138580634,1,-3,6,3,6,6,-1,2
1615918138580634,1,3,13,-3,-24,-2,3,1
1615918138581588,-3,-5,-19,4,46,2,0,-2
1615918138581588,-2,5,24,3,-4,0,1,-1
1615918138593991,1,-2,-2,-3,-5,0,-1,-2
1615918138593991,0,3,7,2,11,6,0,-1
1615918138601745,-1,-1,11,-2,-11,1,1,-2
1615918138601745,-3,-13,-34,-7,-4,-17,-5,-3
1615918138617684,0,1,-12,4,8,6,3,0
1615918138617684,-1,0,-5,0,-4,-1,-4,-1
1615918138618681,0,3,33,4,3,1,0,1
1615918138618681,1,-1,-7,-3,-3,1,2,0
1615918138639816,-2,-1,-18,-1,-5,-7,1,-2
1615918138639816,-3,-5,21,0,-1,1,-9,-5
1615918138641810,0,1,-1,2,-8,-2,0,0
1615918138641810,-2,0,-21,1,-13,-5,-2,0
1615918138662834,1,0,-32,-4,25,8,3,0
1615918138662834,0,1,3,3,1,-13,-1,1
1615918138663891,-2,-8,-11,-6,-10,-6,0,-2
1615918138663891,-1,-2,-5,-4,5,5,-3,-1
1615918138677450,-2,2,5,2,-9,0,2,3
1615918138677450,0,5,31,4,6,7,1,-3
1615918138678860,3,-2,1,0,7,-2,-1,0
1615918138678860,-2,-4,-14,-4,-18,-9,-1,-3
1615918138707420,0,-6,1,1,-3,9,-1,0
1615918138707420,-3,-7,-23,-7,6,-6,-1,-2
1615918138709387,-2,2,27,4,0,-5,-1,-2
1615918138709387,0,2,-17,-3,-4,-6,-2,0
1615918138713403,-3,-1,25,1,-3,5,1,-4
1615918138713403,1,3,-27,-3,3,9,3,2
1615918138722478,0,-1,28,0,-14,-5,1,0
1615918138722478,0,6,44,5,3,-9,-1,-1
1615918138737795,0,-5,-41,-9,-9,-4,-4,-1
1615918138737795,1,4,8,1,-3,-3,1,-2
1615918138738794,-1,-6,-29,-4,-1,9,-4,1
1615918138738794,-1,-8,0,0,4,-4,-2,-2
1615918138759789,-4,-6,-16,-5,-1,-6,-2,-4
1615918138759789,0,0,-6,-2,-3,2,6,1
1615918138761784,0,0,-24,-2,-7,0,-1,0
1615918138761784,-2,-5,-8,0,-1,2,-5,-1
1615918138773375,1,0,4,-1,-9,3,0,0
1615918138773375,-1,-7,-33,-5,20,-8,-4,-1
1615918138782635,-5,1,21,1,-2,-4,1,0
1615918138782635,1,5,21,1,5,10,3,-1
1615918138798074,-3,-1,16,3,3,-6,-3,-3
1615918138798074,-2,-2,6,-6,-2,3,1,-3
1615918138799073,0,-2,-23,0,-3,-8,-4,-2
1615918138799073,-2,0,-15,-1,13,6,-3,0
1615918138820354,0,7,24,-2,-4,0,6,-1
1615918138820354,-3,-3,2,-2,0,-6,-9,0
1615918138821353,2,2,11,-5,-7,3,-2,-1
1615918138821353,-2,-4,-11,0,-6,-1,2,-3
1615918138833599,2,11,19,3,1,0,2,1
1615918138833599,-1,-11,-35,-2,-16,5,4,0
1615918138842430,-1,-4,-8,0,11,-6,-5,-1
1615918138842430,-4,-5,-9,-5,-10,-8,-2,-4
1615918138857588,-1,-2,-12,-4,6,-8,-2,2
1615918138857588,-1,-2,2,1,3,5,0,-2
1615918138859583,-3,-4,-22,-5,-8,-5,-2,-4
1615918138859583,0,5,22,-1,-6,1,2,2
1615918138880473,1,-3,-14,0,15,4,-5,-1
1615918138880473,0,-5,-7,0,-2,-9,0,0
1615918138881473,-1,3,3,-1,3,13,2,-2
1615918138881473,-3,0,-3,0,-5,-11,-13,-1
1615918138893615,1,-4,-16,-2,-3,-3,1,-3
1615918138893615,-4,-9,-10,-7,-6,1,-1,-3
1615918138902376,2,14,67,11,-2,-4,2,1
1615918138902376,0,-4,-23,-4,-2,6,3,0
1615918138917363,-1,-2,-2,-6,0,-1,-1,-2
1615918138917363,-3,2,10,3,-1,-2,-3,-3
1615918138919335,0,-4,11,2,1,2,3,0
1615918138919335,-1,-3,-21,-10,-3,-8,2,-3
1615918138940189,0,3,28,7,-3,-5,-5,-1
1615918138940189,-1,2,9,2,-4,0,-1,0
1615918138941186,2,5,8,2,1,0,-1,1
1615918138941186,0,-5,2,2,10,4,5,1
1615918138954204,-1,-3,-8,-1,8,-5,-7,-1
1615918138954204,-1,0,21,-3,-5,1,-1,-1
1615918138963188,-1,1,-39,1,0,-4,-2,-2
1615918138963188,-1,2,15,-2,-14,-3,0,2
1615918138977191,-5,-6,23,5,11,8,2,-6
1615918138977191,2,6,-22,0,-2,-6,0,-1
1615918138985148,-3,-6,3,-3,-8,-9,-3,-1
1615918138985148,-2,1,-12,-2,1,0,2,-1
1615918139000386,0,-3,-25,-6,-13,4,0,0
1615918139000386,0,3,42,8,1,3,-2,-1
1615918139002231,0,-7,-33,-7,-3,2,4,1
1615918139002231,0,2,9,3,-4,-8,-2,-3
1615918139014200,-2,-4,-10,-3,-1,-2,-5,-3
1615918139014200,0,8,-6,-1,3,-2,0,1
1615918139029253,-2,-3,-6,-1,-6,-2,-2,-2
1615918139029253,-2,-9,-6,-1,5,2,-1,-1
1615918139037443,-1,2,-3,-1,-13,-2,3,1
1615918139037443,-2,-3,-3,-5,-8,2,-2,0
1615918139039332,-2,-3,0,-2,7,3,-3,-5
1615918139039332,-6,-9,-5,-3,-4,-3,-3,-3
1615918139060348,1,2,-4,1,-3,-5,0,0
1615918139060348,1,-7,-48,-4,19,-2,2,0
1615918139061345,-1,2,-11,-6,-3,-4,-9,-2
1615918139061345,1,1,2,3,7,5,1,-1
1615918139073363,1,1,22,1,-3,-3,1,1
1615918139073363,-3,-10,-14,-9,-1,1,-2,-2
1615918139082436,-3,2,55,6,-5,-2,1,-1
1615918139082436,1,-2,-44,-6,-1,1,-2,1
1615918139098135,0,2,4,6,10,2,1,2
1615918139098135,0,5,25,3,-3,5,3,-1
1615918139099135,-2,-10,-42,-6,-8,-12,-3,-1
1615918139099135,-2,-5,33,3,7,4,-5,-4
1615918139120331,0,7,18,3,-15,-8,0,0
1615918139120331,-1,-3,-21,-2,0,1,-1,-1
1615918139121331,1,1,9,-1,-7,-1,-1,0
1615918139121331,-1,-2,1,-1,1,4,-1,-2
1615918139134147,1,1,2,-3,-6,-14,-7,2
1615918139134147,-3,-3,6,2,7,7,-2,-6
1615918139142367,0,0,-32,2,0,1,4,0
1615918139142367,0,1,15,-2,-10,0,5,1
1615918139157377,-1,-1,20,-6,-6,3,-2,1
1615918139157377,3,0,-13,7,-17,-7,-3,0
1615918139163384,0,3,8,-2,-2,1,-4,-4
1615918139163384,-1,-4,-23,-2,6,-4,-2,0
1615918139180338,-2,-9,-23,-6,3,6,3,-2
1615918139180338,-3,3,30,6,0,-7,-1,1
1615918139181338,-2,3,-11,-6,0,4,-1,-2
1615918139181338,0,3,-7,1,-5,1,-1,-1
1615918139203061,-5,-13,-15,-4,3,0,1,-2
1615918139203061,-1,6,-8,-4,-3,-1,-1,0
1615918139204061,1,7,30,1,7,-8,1,1
1615918139204061,0,4,36,2,-12,-4,-5,-1
1615918139218023,-1,0,9,-2,-10,-2,5,-3
1615918139218023,0,-6,-19,-6,-6,0,0,-2
1615918139219022,-4,-7,-20,-2,27,2,-4,-3
1615918139219022,1,8,61,10,8,0,3,0
1615918139239995,-2,-8,-68,-12,-9,3,0,-1
1615918139239995,1,2,83,13,2,-6,-4,0
1615918139242016,0,2,-14,-3,-15,-3,1,2
1615918139242016,-1,-7,-30,-3,17,3,2,-2
1615918139262653,-2,0,-4,2,12,-4,-5,-3
1615918139262653,-1,-6,-18,-7,-11,-7,-3,-2
1615918139263922,3,2,28,4,-6,-3,4,-1
1615918139263922,-1,-4,-30,-3,-5,-8,-6,-2
1615918139278153,-1,7,44,6,-2,9,2,-2
1615918139278153,0,1,33,1,8,-2,1,3
1615918139279153,-3,-6,-6,-3,-3,-2,-1,-4
1615918139279153,2,-4,-23,-10,-9,0,0,-2
1615918139300302,-1,2,17,3,-4,1,-3,-2
1615918139300302,0,1,-40,-2,-4,-10,2,-1
1615918139306229,1,2,36,3,2,10,0,0
1615918139306229,0,2,-6,-2,5,1,-2,-1
1615918139322187,-4,-2,-15,-5,-3,-5,2,0
1615918139322187,-1,-1,-10,-4,6,5,2,0
1615918139324181,-1,-1,-3,4,-10,-2,-9,-1
1615918139324181,-1,-2,-15,-7,-7,-9,-1,-2
1615918139337317,1,0,15,5,1,3,0,0
1615918139337317,-3,-4,-7,0,-2,0,0,-2
1615918139343306,0,-1,4,-5,1,-2,1,-1
1615918139343306,-1,-2,13,3,11,8,-2,-2
1615918139360354,1,2,-5,-1,-4,-11,-2,1
1615918139360354,3,0,15,-2,2,-1,5,4
1615918139361320,-3,-4,-11,-5,-5,2,-6,-7
1615918139361320,-3,-4,-13,0,-1,3,0,-2
1615918139382264,-4,-3,4,-2,8,1,2,0
1615918139382264,1,7,5,0,1,-1,1,-1
1615918139384259,0,-3,-11,0,1,1,1,1
1615918139384259,2,2,-2,-2,-5,-2,-1,0
1615918139405388,0,0,4,-1,1,0,-2,-3
1615918139405388,-1,-2,25,3,-2,-6,-3,-3
1615918139406384,-1,-4,-35,-9,3,11,3,0
1615918139406384,-3,5,68,10,-8,-17,-3,0
1615918139420385,-2,-2,-15,-2,-4,-2,-1,-3
1615918139420385,-3,0,5,-3,-3,-2,-1,-2
1615918139421384,1,-6,-18,-4,-1,-3,1,0
1615918139421384,0,-2,-37,-2,2,1,-1,1
1615918139443102,-1,-7,0,-1,-9,-5,-1,-4
1615918139443102,0,6,13,3,-13,15,1,2
1615918139444347,0,1,-1,0,4,-8,0,-2
1615918139444347,-1,-3,-19,-2,-4,0,-3,0
1615918139457357,0,-5,-11,0,-1,0,2,3
1615918139457357,0,-3,-10,-5,4,4,-4,-4
1615918139463364,-5,0,12,-4,-5,-5,-4,0
1615918139463364,2,2,28,9,3,8,2,3
1615918139480654,-2,0,-27,-5,-2,0,0,-3
1615918139480654,-3,-9,-22,3,11,-6,-1,-1
1615918139481654,2,10,36,0,-2,3,2,1
1615918139481654,-3,-5,13,-10,-3,-5,-4,-3
1615918139503088,0,0,-20,3,-4,-1,-2,-1
1615918139503088,-3,-1,-13,-5,-3,-3,-2,0
1615918139504089,-1,-8,-22,-1,-8,-6,-2,1
1615918139504089,-2,-1,-4,-1,8,3,-1,-7
1615918139517053,3,3,43,5,-8,-1,1,3
1615918139517053,-2,-8,-28,-7,20,2,2,-1
1615918139524035,-3,-5,-18,2,18,-7,-8,0
1615918139524035,-2,-1,-31,-3,-11,1,2,-3
1615918139540251,0,6,7,0,-4,1,0,0
1615918139540251,-1,-1,0,-6,-2,1,-2,-2
1615918139541248,0,-3,-12,7,12,-1,4,-1
1615918139541248,-1,-5,4,-5,-13,2,-3,-2
1615918139562952,-1,7,19,-1,-6,1,-1,-1
1615918139562952,0,-1,5,0,-2,5,-1,-2
1615918139563925,-2,1,-16,-2,-10,-14,-4,0
1615918139563925,-1,-1,4,-1,-6,2,1,0
1615918139585323,-2,-9,-22,-3,5,8,2,0
1615918139585323,1,10,52,3,-8,-9,-2,-4
1615918139587241,-3,-6,-29,-3,-7,7,0,-5
1615918139587241,1,4,16,5,8,-11,-6,2
1615918139600540,-3,-4,32,-1,-6,-6,0,-2
1615918139600540,-4,-4,-42,-3,-1,-4,0,1
1615918139601554,0,-3,-12,-4,-4,5,4,2
1615918139601554,1,6,-11,-3,1,-4,2,1
1615918139622485,-3,-1,-2,2,0,6,-4,-6
1615918139622485,-1,-5,-3,0,-4,-6,-6,-2
1615918139624479,0,1,17,-2,0,1,0,-1
1615918139624479,0,-6,-31,-6,-8,1,1,1
1615918139636456,2,5,35,4,13,2,2,1
1615918139636456,-1,-3,-35,-4,-5,1,-4,0
1615918139645110,-1,1,30,2,6,3,0,0
1615918139645110,-1,3,18,-3,-2,-2,-2,-4
1615918139660502,0,-5,-24,2,4,-6,-3,0
1615918139660502,-2,-3,25,-3,-11,3,1,-1
1615918139661489,-4,2,-21,0,-9,-2,1,-2
1615918139661489,-2,-4,-13,-6,6,-7,-1,0
1615918139683079,1,-6,-38,1,-7,0,1,0
1615918139683079,-1,-3,-14,-3,-9,0,-1,-2
1615918139684652,-4,-9,-12,-3,-1,-13,-4,-2
1615918139684652,1,-1,7,1,-1,4,-1,0
1615918139696744,2,13,55,0,-6,-3,-1,-1
1615918139696744,-2,-4,-13,3,14,5,-1,-1
1615918139705581,-1,-6,-10,-6,-2,4,4,0
1615918139705581,-1,-8,-21,0,4,-10,-5,-1
1615918139720353,-3,-2,6,-1,-1,1,-2,-2
1615918139720353,-2,4,-10,0,10,-5,1,-1
1615918139721353,1,-1,12,-2,-15,2,-1,4
1615918139721353,-2,3,23,1,7,4,3,-5
1615918139742355,1,-3,-27,0,12,2,2,3
1615918139742355,2,-1,-28,-4,-4,-3,0,0
1615918139744349,1,1,41,6,-1,6,-3,-2
1615918139744349,-2,-6,-35,-1,0,-5,-1,3
1615918139756380,-2,-1,-8,-6,-7,-6,-1,-1
1615918139756380,3,1,-1,3,9,7,-3,0
1615918139765355,-2,0,-8,-3,-11,-6,-1,-1
1615918139765355,-3,0,-11,0,-4,6,3,-1
1615918139780312,-3,-9,-20,-5,-10,-2,-3,-4
1615918139780312,2,10,29,8,5,-6,1,0
1615918139781310,-1,-2,-2,1,3,7,1,-2
1615918139781310,1,11,20,-1,-9,-1,-3,-1
1615918139803000,-5,-7,-18,-10,-3,-7,-2,-2
1615918139803000,-2,-1,-16,-3,-8,-2,-1,1
1615918139804006,2,-1,20,4,5,-4,-4,1
1615918139804006,-2,0,-11,1,-17,-6,1,-4
1615918139815971,0,5,11,-1,12,7,0,-1
1615918139815971,-4,-6,-9,-4,-1,-4,-2,-3
1615918139824946,0,0,-10,-2,1,1,0,-1
1615918139824946,-4,-7,4,-3,-2,-5,-9,-1
1615918139839931,0,3,4,-1,-11,-4,1,0
1615918139839931,-1,0,-30,3,-3,2,-3,-2
1615918139841900,0,-1,-32,-5,-15,-4,1,-4
1615918139841900,1,1,40,11,6,3,0,1
1615918139863122,-4,-10,-45,-5,0,2,-4,-1
1615918139863122,1,1,47,5,4,-5,2,0
1615918139864123,-5,-3,-16,-6,-12,-6,-3,-2
1615918139864123,2,8,24,4,4,5,-1,1
1615918139876410,-1,-4,-11,-4,4,-4,1,-1
1615918139876410,0,1,-11,-5,-3,1,3,0
1615918139885799,-1,1,21,3,6,3,-3,-3
1615918139885799,-1,-6,-5,-1,-1,-3,0,-1
1615918139907542,1,3,4,2,2,-1,-6,-1
1615918139907542,-2,1,28,-3,7,-2,0,-1
1615918139909536,1,4,16,0,0,-1,-1,2
1615918139909536,-2,-9,-37,-7,7,6,6,-2
1615918139922917,1,0,5,-1,-7,-13,-6,-2
1615918139922917,-2,-7,-16,-2,0,4,-2,0
1615918139923920,1,7,53,6,7,1,1,-1
1615918139923920,-2,-1,-16,-5,4,-8,0,-2
1615918139936033,-4,-3,0,0,-1,5,-1,-2
1615918139936033,3,-1,18,-1,-23,-2,2,5
1615918139945042,-1,-3,-15,1,6,1,1,-3
1615918139945042,-2,-4,-22,-5,-5,-2,0,2
1615918139959872,1,7,27,3,1,5,4,3
1615918139959872,-6,-10,-17,-2,15,-10,-12,-7
1615918139961842,0,3,-2,-1,-4,2,2,-1
1615918139961842,-2,2,17,2,-5,3,0,1
1615918139983137,-2,-6,-12,-5,1,0,3,1
1615918139983137,-1,-2,-43,-1,-2,7,3,2
1615918139984142,-3,-6,0,-5,-10,-11,-2,-2
1615918139984142,-2,4,-6,-2,3,-8,-5,-1
1615918139996307,-1,-1,-1,-2,0,-1,-1,-1
1615918139996307,0,-2,4,-1,-3,3,1,-2
1615918140005099,1,-3,-6,-3,2,3,-2,0
1615918140005099,0,2,4,3,-8,0,1,2
1615918140020083,0,-4,-17,-2,2,0,0,-1
1615918140020083,0,1,29,-3,4,-7,-10,-2
1615918140022053,-1,-1,4,1,-2,1,3,0
1615918140022053,-2,-2,11,-3,-5,3,-2,0
1615918140042389,-1,3,-2,1,8,-4,0,-4
1615918140042389,-1,-4,3,-2,3,2,1,-2
1615918140044380,-1,2,-18,-5,-23,0,-1,-2
1615918140044380,-1,-3,-12,4,12,0,0,-1
1615918140056422,0,-2,21,-1,8,3,1,3
1615918140056422,-2,-2,-11,0,-11,-3,3,-2
1615918140065381,-2,0,-16,-2,3,-3,0,2
1615918140065381,1,-5,-8,-6,-8,1,-6,-2
1615918140080359,0,0,-16,-1,-22,-5,-1,0
1615918140080359,-2,-3,0,-1,-3,-7,6,-1
1615918140081357,0,4,-1,-3,5,6,-10,-1
1615918140081357,-2,-1,13,4,-2,10,4,-1
1615918140103020,-3,5,-5,-3,4,-17,-8,-4
1615918140103020,-1,2,16,2,-8,2,-1,1
1615918140104024,-5,-7,-22,-3,-5,1,1,-5
1615918140104024,1,0,14,-4,2,-6,0,-1
1615918140124966,-1,-6,-55,-4,-8,7,-2,0
1615918140124966,-1,-2,54,8,1,0,2,0
1615918140126961,1,7,-6,-2,12,0,0,-3
1615918140126961,-2,-3,-9,2,-8,-9,-2,-1
1615918140153936,-2,1,25,-3,4,7,3,-2
1615918140153936,1,0,-10,0,-12,-1,-9,0
1615918140164913,-3,-1,12,-3,-1,-1,3,-2
1615918140164913,0,2,17,1,-5,-13,-2,1
1615918140165912,2,2,3,5,5,14,0,1
1615918140165912,-2,-3,-10,-4,-3,-12,-3,-2
1615918140168920,-3,-6,-9,-1,-13,5,-3,0
1615918140168920,0,1,-21,-3,15,7,0,-1
1615918140184858,-1,-2,34,3,16,-10,2,0
1615918140184858,0,2,-37,-5,-5,4,1,-5
1615918140186853,-1,-2,-13,1,14,-8,-2,0
1615918140186853,-1,-5,-11,-4,3,1,-6,0
1615918140200391,1,6,16,3,-7,1,4,1
1615918140200391,-3,-4,-29,-7,18,4,-1,0
1615918140201391,1,-6,7,1,1,-10,2,1
1615918140201391,-1,0,11,2,0,1,1,-2
1615918140222365,0,4,-5,0,-2,4,-2,0
1615918140222365,-2,-2,-12,-3,-4,-5,0,0
1615918140224359,-1,3,24,4,3,7,0,-2
1615918140224359,-2,-1,2,-5,-1,5,4,-1
1615918140245058,-1,-8,-15,-5,-16,-1,-2,-1
1615918140245058,0,-2,-11,1,-11,-2,1,-1
1615918140247032,-2,-3,19,-1,3,2,4,-2
1615918140247032,2,1,0,2,-7,-5,-8,-1
1615918140259361,-2,-2,-22,-4,9,-2,-2,-3
1615918140259361,-1,1,16,2,-12,0,4,2
1615918140266308,0,2,-3,-6,-4,2,-3,0
1615918140266308,-1,-3,2,-1,-8,-3,5,0
1615918140282287,-4,-10,2,-3,-6,-5,-6,-6
1615918140282287,0,7,21,3,6,3,-4,-1
1615918140284259,1,-2,-17,-5,5,-1,3,3
1615918140284259,1,4,37,2,-29,0,1,0
1615918140305391,0,3,14,3,2,2,1,0
1615918140305391,2,1,10,-1,4,-10,-1,0
1615918140306363,1,3,24,5,-2,3,-3,-2
1615918140306363,-1,-9,-58,-7,5,2,1,0
1615918140319719,-2,8,42,6,2,-6,-7,-3
1615918140319719,-1,-6,-4,-7,2,4,1,0
1615918140328329,3,6,-1,1,0,-5,1,2
1615918140328329,-4,-6,-7,-4,4,-7,-3,-3
1615918140342342,1,3,-14,1,-24,0,0,-2
1615918140342342,2,0,-2,-2,-1,-1,1,1
1615918140343970,-3,-6,-8,0,16,5,-3,-5
1615918140343970,0,2,3,1,7,-1,0,3
1615918140373111,-1,-9,-37,-3,3,2,3,1
1615918140373111,0,7,53,4,-17,-3,-4,-2
1615918140374110,-3,-5,-29,-1,-9,-2,-1,-1
1615918140374110,-2,-5,-2,-2,0,5,5,-1
1615918140379485,1,6,36,2,9,-5,-6,1
1615918140379485,-1,1,-4,2,-9,1,2,-1
1615918140394272,-2,-8,-19,1,5,-9,-3,0
1615918140394272,1,6,-6,2,3,2,-4,0
1615918140403097,-3,-1,-19,-7,-9,-3,2,-1
1615918140403097,-4,-3,1,-3,5,-1,0,-2
1615918140404394,0,0,-5,-4,-3,3,-1,0
1615918140404394,-3,-2,2,1,1,-8,-2,-4
1615918140425242,-2,-7,-16,-3,6,1,1,-5
1615918140425242,1,2,22,4,8,3,-1,1
1615918140426338,0,6,27,5,-1,1,0,-2
1615918140426338,-1,-1,8,-3,-2,-7,2,-3
1615918140439194,-3,-10,-61,-6,7,9,-10,0
1615918140439194,-2,4,39,4,7,-8,3,-1
1615918140447396,-1,-3,16,0,-17,-1,1,0
1615918140447396,0,2,1,-2,0,1,0,-1
1615918140463184,-2,-9,-21,-3,20,-2,2,1
1615918140463184,-1,2,3,-1,-10,3,-3,-2
1615918140464184,-3,-3,-2,4,10,-2,1,0
1615918140464184,4,8,9,-2,5,5,-2,1
1615918140485146,-4,-14,-7,0,-7,-8,-1,-2
1615918140485146,1,-1,-39,2,4,1,0,0
1615918140487115,5,7,32,-2,-15,-3,-1,5
1615918140487115,-4,-11,-43,-4,3,7,-3,-6
1615918140499930,2,9,36,5,-2,-17,-5,-1
1615918140499930,-5,-7,-30,-6,2,6,2,-3
1615918140506137,-2,-1,-12,-3,-7,-3,-4,-3
1615918140506137,-4,-9,-8,-4,0,-2,0,-2
1615918140523073,2,9,10,-2,-8,4,5,1
1615918140523073,0,-3,-8,-3,-5,-3,-3,0
1615918140524072,-3,1,-20,-5,2,1,0,-2
1615918140524072,0,5,13,-1,-5,1,-1,-1
1615918140545240,-2,-5,3,-2,-2,-4,1,-1
1615918140545240,-4,-8,-32,-1,22,-2,-2,-2
1615918140547239,-1,4,41,2,-2,-4,2,0
1615918140547239,-1,5,-3,-3,0,-2,0,3
1615918140559794,0,-3,10,-1,-12,-4,-1,2
1615918140559794,-1,1,10,-2,-3,0,0,-4
1615918140566806,-1,-9,-24,-1,-4,-4,-3,1
1615918140566806,-1,3,22,4,4,3,2,-4
1615918140583155,1,0,-10,-7,-8,1,0,-2
1615918140583155,-3,-2,-1,-5,-7,-2,-5,-3
1615918140584154,1,-1,21,4,3,12,0,0
1615918140584154,-4,-5,-31,2,11,-15,-3,0
1615918140605263,1,-3,-18,-2,-12,-2,0,0
1615918140605263,1,6,13,-4,-4,0,-3,1
1615918140607256,0,4,47,8,3,7,2,-2
1615918140607256,-1,-5,-28,0,3,1,0,-1
1615918140619280,0,2,41,7,-1,-2,-7,-1
1615918140619280,0,0,-5,0,-15,-8,1,-1
1615918140627524,-1,-5,-32,-3,26,-4,-4,-3
1615918140627524,1,0,14,5,-3,3,0,1
1615918140650317,1,4,13,-1,-1,3,3,0
1615918140650317,-2,-3,-23,-3,-5,-2,-2,-1
1615918140651315,-2,2,-15,-3,3,-6,0,0
1615918140651315,-3,-6,-15,-4,-8,1,1,-4
1615918140665307,1,0,38,0,17,4,0,0
1615918140665307,4,3,-30,-1,5,5,2,2
1615918140666274,-3,-6,-11,-4,-13,-10,-4,-3
1615918140666274,2,7,18,-1,-4,3,-2,2
1615918140679264,-3,-10,-22,1,0,-5,5,-3
1615918140679264,-3,0,-2,-8,0,0,-10,-1
1615918140694277,3,3,-3,1,-6,10,1,1
1615918140694277,0,1,12,1,-17,-13,0,0
1615918140702461,-2,-4,-14,-1,19,9,2,-1
1615918140702461,0,2,21,5,1,-13,-3,0
1615918140704359,-3,-10,-27,-5,-10,-1,-1,-2
1615918140704359,1,-6,4,0,-5,4,-3,-1
1615918140725170,3,8,27,0,3,4,1,1
1615918140725170,1,-2,12,2,-7,-7,-2,0
1615918140727160,-3,0,-6,-5,-6,-2,4,0
1615918140727160,-5,-6,-8,-4,2,3,-8,-7
1615918140739243,-1,2,11,1,-3,-5,-1,1
1615918140739243,0,-3,-10,-5,-10,-1,2,0
1615918140747570,-1,2,16,-1,-6,-6,-3,-2
1615918140747570,-1,-4,-16,1,9,4,1,2
1615918140762649,1,5,-9,-3,-7,4,-3,-1
1615918140762649,-3,-10,4,1,0,0,2,-1
1615918140764718,-1,-1,-15,-4,1,0,1,0
1615918140764718,0,7,33,3,-1,2,1,-1
1615918140785259,0,-4,-22,-5,-4,-6,-3,-2
1615918140785259,-4,-7,-33,-6,-6,-5,-5,-3
1615918140787261,0,2,24,1,5,5,-2,0
1615918140787261,2,1,2,-2,-15,-5,-2,1
1615918140798260,-7,-8,-11,0,6,-3,-1,-4
1615918140798260,3,6,10,5,5,9,4,1
1615918140808248,-1,-7,-26,-7,-7,-7,-5,0
1615918140808248,-1,14,50,1,-2,-10,-1,-3
1615918140822369,2,-1,-5,-3,-6,-4,0,0
1615918140822369,-4,-9,-4,1,-2,2,-1,-5
1615918140824363,-3,-5,-12,-5,-4,-4,0,-4
1615918140824363,1,0,0,2,-11,3,0,2
1615918140845479,-1,-1,-2,-3,6,-2,-4,-1
1615918140845479,0,3,29,0,-7,3,3,1
1615918140846458,-1,2,-14,0,-3,-16,-10,-5
1615918140846458,-1,0,13,1,6,6,-1,0
1615918140858553,-2,-1,15,2,2,3,5,1
1615918140858553,1,8,-5,-1,-2,-7,-2,-1
1615918140867531,-2,-7,-2,-1,6,8,0,-1
1615918140867531,-1,-4,-19,-6,3,1,-2,1
1615918140882487,-1,-4,-11,0,-11,-12,-4,-3
1615918140882487,-2,1,21,5,7,4,5,3
1615918140884482,2,0,-4,0,-2,-2,-2,-6
1615918140884482,-3,-11,-24,-5,-3,-4,-1,-2
1615918140905557,0,4,1,-4,-22,4,-3,1
1615918140905557,1,3,-6,-4,-1,-2,0,0
1615918140906554,-1,-4,8,3,14,8,0,1
1615918140906554,-2,-6,8,-1,-19,-5,0,-1
1615918140919304,-4,6,-1,0,-1,-3,-1,-1
1615918140919304,-1,-4,-18,-2,0,3,-1,-2
1615918140927483,-3,-6,-18,-9,-8,-1,0,-1
1615918140927483,0,3,6,3,5,-3,0,1
1615918140943163,-2,-12,-42,1,-3,-1,1,0
1615918140943163,-1,-1,-5,-4,10,16,-1,-2
1615918140944162,3,-1,-11,-2,-4,-16,-2,0
1615918140944162,-2,-2,-11,-7,6,3,3,-1
1615918140965548,0,2,3,3,9,-1,-8,-2
1615918140965548,-4,-7,-22,-8,0,-1,0,-3
1615918140966492,1,8,60,12,0,4,2,1
1615918140966492,0,2,-14,-2,4,-3,-3,-1
1615918140979305,-1,0,-1,1,-6,-2,5,1
1615918140979305,-1,-5,-2,-1,8,2,0,-4
1615918140987946,-3,-3,-27,-4,-19,-3,-1,1
1615918140987946,3,3,1,3,5,7,1,1
1615918141003146,-2,-3,19,-2,6,0,1,-2
1615918141003146,0,-1,0,-7,-20,-7,-4,1
1615918141003950,-2,-2,-25,2,8,-1,1,-2
1615918141003950,0,0,2,0,6,4,1,-3
1615918141025380,0,2,3,-2,-2,6,-1,-2
1615918141025380,1,-8,-22,-5,-5,-14,-2,-2
1615918141026374,1,6,21,-2,-4,-1,-4,0
1615918141026374,1,2,38,3,0,-1,-3,0
1615918141038858,-3,-10,-6,-3,-1,0,3,-1
1615918141038858,0,2,3,5,12,5,0,1
1615918141048016,-3,-1,-8,-5,-1,9,5,0
1615918141048016,0,-8,-27,0,4,-12,-2,1
1615918141062686,-1,5,52,2,-5,2,-2,-1
1615918141062686,1,1,-14,-1,-3,0,1,-2
1615918141064013,-1,-1,-4,1,8,1,-2,1
1615918141064013,-1,4,4,-3,-9,1,-1,2
1615918141084830,-1,-2,13,5,-6,-8,0,-2
1615918141084830,-2,3,6,-3,4,8,0,-2
1615918141086827,0,-5,-6,1,2,-1,0,-3
1615918141086827,-2,-5,-17,-5,4,6,0,-1
1615918141107877,-1,-4,-12,-5,-8,-15,-4,-1
1615918141107877,-3,-2,-14,-3,0,-2,-7,-3
1615918141108882,3,4,29,8,-14,-2,4,1
1615918141108882,-3,1,23,-3,5,-3,-1,-3
1615918141122378,1,-5,-32,4,8,6,0,0
1615918141122378,-1,0,1,-2,0,-1,-1,1
1615918141124373,-3,-9,-26,-9,-8,-8,-4,-3
1615918141124373,0,6,4,7,2,2,0,-5
1615918141145332,1,2,3,-4,2,3,-2,0
1615918141145332,1,-3,-13,-2,-8,-5,0,0
1615918141146487,-3,2,6,-4,-1,0,2,-3
1615918141146487,-1,-10,-27,-1,2,-2,0,0
1615918141168166,-1,5,20,3,9,1,0,0
1615918141168166,-3,-2,2,1,-5,4,-1,-5
1615918141169167,0,-2,-2,-3,9,-7,-2,0
1615918141169167,-2,-7,-16,-3,-9,8,3,-3
1615918141183190,-3,-1,-37,-8,-4,-9,-3,-1
1615918141183190,0,8,99,14,5,-11,-7,0
1615918141184189,2,-3,-28,-5,-8,-4,1,0
1615918141184189,-2,-3,-7,-6,-7,-6,-4,-2
1615918141205481,-3,-2,-1,-1,9,9,5,-1
1615918141205481,-1,1,1,1,-4,6,4,2
1615918141207476,0,2,14,-1,2,-8,-2,0
1615918141207476,-3,-1,-5,-4,-4,-2,-2,2
1615918141227355,0,1,-13,0,-2,5,0,-2
1615918141227355,0,-5,1,-8,-9,-4,-3,-3
1615918141229332,-1,10,47,10,9,-3,2,-1
1615918141229332,-1,-3,-14,-4,4,-13,-9,-4
1615918141250663,-2,-4,-6,-3,-5,1,-2,-1
1615918141250663,-1,-2,-24,2,4,5,2,0
1615918141252307,-3,-8,-28,-5,4,3,-5,-3
1615918141252307,-1,6,21,4,-4,1,1,0
1615918141266351,3,0,-9,-4,2,-3,1,0
1615918141266351,0,3,-13,0,-4,-8,0,0
1615918141267212,0,-2,2,0,9,4,1,-1
1615918141267212,1,0,-9,-4,-7,2,0,0
1615918141287332,-1,-3,-23,-5,-3,-6,-2,-2
1615918141287332,-1,-5,7,1,5,5,3,2
1615918141289767,-1,3,-4,-3,-12,-5,-4,-2
1615918141289767,0,0,9,0,9,1,3,0
1615918141302531,-1,7,53,8,-12,2,3,0
1615918141302531,-2,-5,-15,-4,2,-11,-10,-4
1615918141308762,-4,-3,0,-1,-5,2,0,-2
1615918141308762,3,5,-16,-2,4,0,0,3
1615918141325351,-4,-11,-29,-9,-13,-3,-2,-6
1615918141325351,1,7,48,11,-10,-4,3,1
1615918141326349,0,1,-28,-7,6,5,-1,0
1615918141326349,0,4,32,6,-4,6,3,-1
1615918141348096,2,-3,-25,-2,4,-6,-3,2
1615918141348096,-4,-8,-42,-8,-4,2,-3,-3
1615918141349100,-3,-2,-7,-5,-10,-4,0,0
1615918141349100,-2,4,89,14,-3,3,0,-2
1615918141362331,0,3,-9,-2,-8,-4,-2,0
1615918141362331,-1,3,8,-1,6,0,5,-1
1615918141369304,2,-3,-16,-5,-5,1,-2,1
1615918141369304,-2,-7,-19,-3,5,-7,-3,-1
1615918141385263,-6,-7,0,0,7,2,-1,-3
1615918141385263,-1,7,28,-3,-6,0,-3,-4
1615918141387230,2,8,-4,3,4,3,4,0
1615918141387230,-4,-12,-54,-3,2,-3,-1,-3
1615918141407283,2,3,-8,-2,10,3,-3,-1
1615918141407283,2,3,36,5,-2,-4,2,2
1615918141409255,-3,-5,-6,-3,-8,5,-2,-4
1615918141409255,-3,-2,6,-2,19,1,-3,-3
1615918141422358,0,1,4,2,-6,-3,1,0
1615918141422358,-1,-7,-28,-6,-5,-2,-2,-1
1615918141428340,1,1,14,1,8,-6,-4,0
1615918141428340,0,-2,-15,-7,-14,1,2,0
1615918141445316,3,1,-14,-1,3,0,-7,1
1615918141445316,-2,9,55,8,2,-3,3,-1
1615918141446431,-1,-6,3,0,-3,0,-1,-1
1615918141446431,-1,-4,-26,-11,-6,5,4,-2
1615918141467725,-4,-1,19,7,-1,-2,-2,-4
1615918141467725,2,4,39,2,-12,-4,-3,2
1615918141469699,1,5,18,2,3,3,-1,-1
1615918141469699,2,-1,-27,-3,-4,-5,-2,0
1615918141481689,-1,2,32,4,-2,5,4,2
1615918141481689,-4,-6,-37,-3,12,-2,-1,-2
1615918141488648,-2,-5,9,-1,3,7,5,0
1615918141488648,-2,-1,-11,-3,-15,-8,-4,-3
1615918141504731,-2,1,4,-3,10,-3,-1,-2
1615918141504731,-1,-9,-47,-1,12,5,0,0
1615918141506725,2,5,32,3,-3,-5,0,0
1615918141506725,-1,2,-20,-6,-1,-3,0,0
1615918141528618,2,1,-38,-3,-5,0,0,1
1615918141528618,-2,-4,10,2,1,4,2,1
1615918141530246,-2,-2,-7,6,2,-1,-5,-5
1615918141530246,-1,2,-3,-3,-5,0,-2,-1
1615918141541257,0,-1,7,-3,-23,-5,-1,0
1615918141541257,-1,-5,-34,-11,-3,2,-3,-1
1615918141550827,-1,-2,8,6,6,4,1,-1
1615918141550827,1,2,-1,2,0,-4,0,3
1615918141564812,2,3,39,0,4,1,-1,-1
1615918141564812,-2,-2,-28,-4,2,3,2,-2
1615918141566809,-5,-3,-6,-4,-8,0,-1,-1
1615918141566809,-2,-2,-15,-3,0,-3,-4,-3
1615918141587316,-2,7,28,0,5,-4,-1,1
1615918141587316,-1,1,40,2,-10,4,0,1
1615918141589312,-1,-5,-18,-4,33,2,0,-2
1615918141589312,1,4,44,6,-14,-7,-5,1
1615918141601829,-4,-7,-28,-3,-2,-4,3,-2
1615918141601829,-1,-1,-10,-5,-13,1,-7,-2
1615918141610306,-2,3,11,2,2,-5,-2,1
1615918141610306,-2,-3,-3,-3,5,9,3,-2
1615918141625442,-1,-9,-8,-1,5,-9,-2,-2
1615918141625442,2,11,43,6,3,0,3,-1
1615918141627412,-3,-10,-8,-6,-35,-3,-2,-3
1615918141627412,0,2,-23,-5,7,3,-2,2
1615918141647407,-1,8,58,9,2,10,3,-2
1615918141647407,-2,-7,-43,-9,3,-8,-2,-1
1615918141649402,-2,-2,-10,-5,-4,-12,-5,-1
1615918141649402,0,-3,29,2,1,4,3,0
1615918141661371,-2,-2,-12,1,-9,6,-3,-2
1615918141661371,-1,-3,-26,-7,-16,-22,-4,-3
1615918141670346,0,4,39,4,19,6,-1,-1
1615918141670346,-2,-6,-24,-4,-12,-10,-3,-3
1615918141685333,-2,3,9,-1,2,5,-1,0
1615918141685333,0,-7,-26,-1,10,1,-1,3
1615918141691318,0,0,-14,-3,-27,-8,0,-6
1615918141691318,-1,-1,-10,1,8,1,-1,-2
1615918141708067,-1,-5,-23,-1,3,-2,0,0
1615918141708067,-1,-6,-20,-4,7,3,-3,-2
1615918141709064,-1,11,23,1,-7,-7,2,3
1615918141709064,-2,-6,-8,-1,4,2,2,0
1615918141721327,0,-5,-16,-3,-5,-4,-4,0
1615918141721327,0,0,2,2,0,4,3,-2
1615918141730303,0,-4,-19,-5,-30,-5,-1,1
1615918141730303,-3,0,9,-2,4,-7,-3,-3
1615918141745286,-1,0,38,1,6,6,2,3
1615918141745286,-3,-7,-26,-3,-2,-7,-2,-3
1615918141746260,2,11,17,4,7,12,3,1
1615918141746260,1,1,-5,1,-1,-6,2,2
1615918141767204,2,-4,-8,-7,3,8,-1,0
1615918141767204,-5,-6,36,7,6,-12,-2,-10
1615918141769199,1,1,-20,-4,1,6,2,3
1615918141769199,0,1,18,1,-6,-8,-4,-3
1615918141781192,-3,-2,-20,-7,4,2,2,-1
1615918141781192,-2,-2,-7,0,5,8,-7,2
1615918141790143,0,-7,-6,-3,4,-1,1,-1
1615918141790143,2,1,2,2,-3,-3,1,-1
1615918141805103,-4,-10,-7,-2,-13,-10,-2,-2
1615918141805103,2,20,10,3,11,10,4,2
1615918141807097,-4,-5,11,1,12,-5,-4,-2
1615918141807097,-2,4,4,-1,5,6,-1,-2
1615918141828065,-2,-4,-21,-1,2,0,-3,-3
1615918141828065,3,8,30,3,-8,-7,1,-1
1615918141829063,-4,-10,-15,-6,3,-13,-8,-3
1615918141829063,-1,-1,-16,1,-6,-8,-4,-3
1615918141841006,0,0,13,-1,-14,4,1,-2
1615918141841006,-3,-2,-4,-7,20,3,4,-2
1615918141856964,0,-3,-35,-3,6,4,-5,0
1615918141856964,1,1,55,3,-5,-5,1,1
1615918141864943,0,-1,-23,-3,-10,-6,-1,-3
1615918141864943,-2,-2,-10,-8,-10,2,1,-1
1615918141866938,-1,0,10,-2,-2,3,3,0
1615918141866938,0,1,30,5,6,6,-1,3
1615918141887882,-2,4,12,1,0,-14,0,0
1615918141887882,-1,-7,-10,3,5,6,1,1
1615918141888879,-1,0,-19,-1,-6,-10,-3,-1
1615918141888879,0,-6,-26,-7,7,-1,-3,-3
1615918141900871,-3,6,25,-3,-5,-1,0,-2
1615918141900871,-1,-6,-10,-1,-3,-2,-3,-1
1615918141909822,-2,-3,-22,-4,-4,-1,-1,-3
1615918141909822,0,0,-8,-5,-5,-3,1,-1
1615918141924782,2,1,-13,4,7,-12,-10,-1
1615918141924782,-2,0,0,-2,-9,0,-1,-5
1615918141926778,-2,-3,0,-1,3,7,2,-1
1615918141926778,-1,2,0,1,1,-1,1,1
1615918141955730,-1,-4,-13,-3,-3,-1,-2,-2
1615918141955730,-3,-8,-5,-4,-6,-3,-3,-3
1615918141957695,-1,6,0,3,0,4,1,2
1615918141957695,-4,-11,-26,1,1,0,-2,-2
1615918141961707,0,3,4,-2,-10,-2,0,0
1615918141961707,-1,-2,2,-5,11,4,2,0
1615918141970660,0,-2,6,7,2,1,-7,-3
1615918141970660,2,5,24,0,4,-11,0,1
1615918141984646,-1,2,15,3,5,3,3,-1
1615918141984646,0,-5,-10,3,0,9,3,-1
1615918141991628,2,3,18,-4,-17,-8,2,0
1615918141991628,-5,-6,-28,0,23,6,-4,-3
1615918142007586,0,5,12,2,-3,2,2,0
1615918142007586,-3,-2,-6,-2,-14,-4,-3,-1
1615918142009555,2,-2,-9,0,5,3,1,-2
1615918142009555,0,4,26,-2,-10,1,0,4
1615918142029526,-4,-9,-32,-4,4,-6,-2,-5
1615918142029526,3,3,7,-1,-4,2,-1,2
1615918142036508,-3,-5,11,0,0,-5,2,-5
1615918142036508,0,1,7,2,-9,-1,-6,1
1615918142045486,-1,-7,-13,-4,2,8,0,-1
1615918142045486,-2,0,-8,3,-19,-17,-3,2
1615918142046457,2,1,-12,0,19,4,0,-1
1615918142046457,0,-3,3,-3,-1,4,3,-3
1615918142067424,-3,-5,-4,-1,-6,5,-1,-2
1615918142067424,0,-3,-8,-2,-15,-10,-1,-1
1615918142069420,-3,-7,-14,-5,4,10,3,2
1615918142069420,-3,-2,1,3,-18,-14,-4,-5
1615918142090367,2,2,-16,-2,-3,3,2,2
1615918142090367,3,4,27,0,9,-1,2,0
1615918142091361,-3,-13,-24,-4,-14,-2,-2,-4
1615918142091361,3,8,-8,0,6,13,2,2
1615918142105300,-2,1,-11,0,6,-6,-1,-1
1615918142105300,1,-5,-4,1,3,1,0,2
1615918142106297,0,8,45,2,2,3,-1,-3
1615918142106297,-3,-7,-13,-11,-14,4,2,1
1615918142128266,-1,-3,-11,5,4,-5,-3,0
1615918142128266,-1,6,0,-1,4,0,-2,-1
1615918142129260,-3,-1,-10,-2,-9,-3,-1,-1
1615918142129260,-1,-3,-5,0,19,2,1,0
1615918142150179,-1,-2,-19,-3,2,3,1,-1
1615918142150179,-2,-7,-24,-4,6,-15,0,-3
1615918142152174,-1,1,31,5,4,2,-3,1
1615918142152174,0,6,-3,0,-4,2,-1,-3
1615918142164166,0,-1,-8,-2,-2,-2,0,-4
1615918142164166,1,2,0,-4,0,3,0,1
1615918142171123,-2,-1,17,1,7,-4,1,-1
1615918142171123,-1,-3,-9,1,-10,-17,-10,-4
1615918142188078,-2,-1,21,1,0,-3,-3,3
1615918142188078,-1,1,4,2,-4,6,0,-5
1615918142189076,0,-1,-24,-6,-4,-2,0,1
1615918142189076,-3,-8,-21,-8,-9,-3,3,-2
1615918142210019,0,7,54,9,6,2,-3,0
1615918142210019,-2,-1,15,-2,-13,1,-1,1
1615918142212039,-2,-4,-12,-2,-8,-2,-1,-3
1615918142212039,1,3,-11,-4,-3,4,0,-2
1615918142224987,1,-5,5,1,-8,-5,2,2
1615918142224987,0,1,-8,3,30,4,-2,1
1615918142230987,-2,-2,-9,1,-12,-8,-3,-2
1615918142230987,1,5,28,-2,1,7,3,-2
1615918142247941,-1,-5,-24,-4,-4,1,-5,-1
1615918142247941,-1,0,13,1,-4,-4,-1,-3
1615918142248939,-1,1,33,4,2,-1,1,2
1615918142248939,-1,-2,-24,-2,2,-5,0,-1
1615918142269884,-2,0,36,-2,-4,4,3,0
1615918142269884,-2,-1,25,2,-8,-1,-4,0
1615918142271853,0,-3,-29,-7,0,-6,-5,-4
1615918142271853,2,1,23,1,-5,-2,0,0
1615918142284819,0,5,-24,-5,2,3,3,-1
1615918142284819,-3,-8,-19,-3,-9,-1,-3,-2
1615918142290828,1,1,7,2,-3,-7,2,-1
1615918142290828,-2,2,-34,-2,5,0,-1,0
1615918142314763,-3,-2,31,-1,-6,-2,-3,-2
1615918142314763,-1,4,-7,-2,-2,2,2,0
1615918142316734,-3,-6,-32,-7,-6,6,-2,-3
1615918142316734,-1,1,33,10,9,-5,-2,-1
1615918142329724,0,0,8,0,-7,-7,-3,0
1615918142329724,-2,0,-36,-7,16,-4,0,-3
1615918142331707,0,2,28,1,4,-1,0,2
1615918142331707,0,-3,1,5,1,5,-2,1
1615918142344659,0,-1,-19,-3,-4,-1,2,0
1615918142344659,-2,-4,-4,-3,9,-3,-1,-1
1615918142360640,1,2,-11,-6,-4,3,-2,-3
1615918142360640,-1,1,7,1,-1,1,-1,-1
1615918142367622,-2,-7,-21,-2,-9,-4,-3,-3
1615918142367622,-2,-1,2,-5,-10,2,0,-3
1615918142369616,1,3,-2,1,2,4,-1,2
1615918142369616,-2,-5,-5,-2,-10,-14,-8,-2
1615918142390536,-3,-2,-9,-7,-4,1,-2,-2
1615918142390536,2,-1,3,1,-3,1,-1,0
1615918142391533,0,2,27,5,5,-7,4,1
1615918142391533,-3,-5,-28,-4,-4,7,1,-2
1615918142404499,0,-4,-34,-4,11,-2,-2,1
1615918142404499,2,1,15,1,9,-3,-1,2
1615918142411506,-2,-5,-17,-5,4,4,0,-3
1615918142411506,-2,-9,-23,-6,-10,-4,-3,-3
1615918142427462,5,10,2,3,14,-1,1,0
1615918142427462,-3,-4,-8,-3,-29,-2,1,-2
1615918142429433,1,7,-2,3,-1,-14,3,4
1615918142429433,1,-1,17,-2,10,7,-5,3
1615918142450400,-2,-1,18,5,-9,-1,0,-6
1615918142450400,-1,-3,-23,-1,11,12,-1,-2
1615918142451397,-1,2,37,1,-9,-3,-2,-1
1615918142451397,-3,-3,-14,-3,-2,1,1,-3
1615918142464362,-2,-3,-6,0,-3,-8,-4,-1
1615918142464362,-1,0,-18,-5,-10,-2,-1,-1
1615918142471320,-1,-4,-14,-3,8,1,-1,0
1615918142471320,0,4,52,5,0,4,1,-5
1615918142487278,-2,-5,-22,-4,3,4,1,-1
1615918142487278,0,-7,-7,-1,-2,-4,-3,-1
1615918142489273,-2,0,0,-3,14,1,-2,-3
1615918142489273,2,14,-7,0,-6,0,5,1
1615918142511213,-3,-7,-14,-2,4,-1,-8,-2
1615918142511213,-1,1,41,6,-6,2,4,2
1615918142512210,-2,-2,-13,-1,0,4,-1,-3
1615918142512210,-3,-6,-7,-1,-5,-9,2,1
1615918142524178,0,-5,5,-4,5,4,0,-3
1615918142524178,-1,4,7,0,3,-2,-4,-1
1615918142533155,-1,-2,-5,6,-6,-4,-3,-2
1615918142533155,1,1,10,-5,7,5,3,3
1615918142555096,1,-2,14,3,4,6,3,1
1615918142555096,-4,-2,-8,-2,-15,-25,-6,-2
1615918142558089,0,-2,-7,-4,-1,0,-5,-3
1615918142558089,-3,-3,-2,2,-3,-1,-3,-2
1615918142570079,-2,5,2,-3,-2,5,1,0
1615918142570079,-1,0,-24,-6,-8,10,4,1
1615918142572051,1,1,46,8,-8,-12,-4,2
1615918142572051,-2,-3,20,0,-5,-5,-1,-5
1615918142592021,-4,0,3,-7,-11,0,-1,-2
1615918142592021,0,-5,-1,4,2,3,1,-1
1615918142599003,2,6,34,1,-2,0,0,-1
1615918142599003,0,-3,-20,-2,-3,2,0,2
1615918142607979,0,3,1,1,-5,-4,1,1
1615918142607979,-3,-3,-13,-4,4,-2,-1,-1
1615918142608953,-2,-7,-24,-5,1,17,2,-2
1615918142608953,1,2,-3,0,6,-6,3,1
