timestamp,emg1,emg2,emg3,emg4,emg5,emg6,emg7,emg8
1615918547878502,-3,0,-10,-27,0,0,-2,1
1615918547878502,3,1,20,27,-2,2,2,2
1615918547885484,-1,1,-2,-10,-1,-6,-3,-2
1615918547885484,2,-6,-26,-19,-4,-5,-4,0
1615918547901440,-6,-1,1,27,-2,-1,5,-7
1615918547901440,1,1,-5,-15,-1,1,-1,1
1615918547903436,-2,-3,-3,3,-1,-1,-4,-2
1615918547903436,-2,-3,-14,-11,2,5,4,-1
1615918547924379,0,-3,-23,-9,-2,-9,3,0
1615918547924379,-2,1,19,14,-2,-11,-17,-2
1615918547925377,-1,0,11,4,-1,8,-2,-2
1615918547925377,-2,0,-10,-8,-2,-4,2,-3
1615918547939339,-2,-6,-30,-21,-1,-1,-18,-1
1615918547939339,-5,0,11,8,1,4,4,-2
1615918547945323,2,6,8,-10,1,-1,2,1
1615918547945323,-2,0,26,31,-2,-5,-4,-3
1615918547961308,0,-2,-7,-3,-2,2,2,-1
1615918547961308,-1,-1,-5,-17,-4,-2,2,0
1615918547963275,0,-3,6,7,-1,-3,-3,-1
1615918547963275,0,-4,-17,-14,-2,-2,-2,0
1615918547984219,-3,4,16,16,0,-2,0,-2
1615918547984219,0,-4,6,3,-1,1,0,0
1615918547986241,-2,-4,-12,-13,0,-4,1,-3
1615918547986241,-3,0,-11,5,-2,5,1,0
1615918547998206,2,-1,4,-18,-3,-4,5,1
1615918547998206,2,2,4,8,3,-3,-16,-1
1615918548007158,-5,-4,-6,-12,-3,-6,-4,-4
1615918548007158,2,2,32,19,-2,4,10,1
1615918548022142,-2,-4,-14,9,-2,7,-2,0
1615918548022142,-1,-2,-10,-10,1,-2,7,0
1615918548023140,0,-3,-8,-14,1,-3,-7,-1
1615918548023140,-4,-2,6,7,-1,-2,-4,-2
1615918548045056,-1,1,16,7,0,3,4,0
1615918548045056,0,2,-1,-1,-3,-3,2,-1
1615918548047051,0,-1,-5,-5,-2,-1,0,1
1615918548047051,6,-3,-16,-3,0,1,-1,6
1615918548058049,-7,-2,5,-14,-3,-5,-4,-7
1615918548058049,-1,-4,-10,0,-1,-3,1,-2
1615918548066998,1,3,31,8,-3,3,11,3
1615918548066998,-3,-2,-21,-11,-2,-6,-22,-4
1615918548081984,0,-4,-13,-8,-1,-2,-3,-1
1615918548081984,1,-1,-20,-17,-3,0,2,1
1615918548082981,-1,6,44,35,3,1,2,0
1615918548082981,-1,-3,-11,-13,-1,-2,1,-4
1615918548103899,-2,-1,4,4,-3,2,1,1
1615918548103899,-3,-2,-15,-10,-2,1,-2,-2
1615918548106892,2,0,-3,-5,-2,-1,-2,0
1615918548106892,-7,-1,-8,-2,-1,-9,-2,-7
1615918548117611,4,3,5,19,1,4,-2,0
1615918548117611,-4,-3,10,-1,-2,3,5,-3
1615918548127461,0,1,-5,-3,-1,-2,-5,-1
1615918548127461,2,-1,-13,-21,0,4,2,0
1615918548141579,-1,0,2,2,-5,-7,6,1
1615918548141579,-2,-2,16,11,0,2,-17,-1
1615918548143578,0,-4,-4,9,0,-7,-5,2
1615918548143578,-7,-1,-8,-20,-3,-1,2,-4
1615918548164548,-1,-4,-8,-1,3,1,2,0
1615918548164548,1,1,-5,-6,-1,0,5,1
1615918548165542,1,0,1,-7,-4,1,-3,1
1615918548165542,-1,-4,8,39,0,-5,-4,0
1615918548177510,1,3,-6,-12,1,3,-7,-1
1615918548177510,0,0,-7,3,1,4,8,2
1615918548186485,-3,0,-1,1,0,1,-2,-1
1615918548186485,-1,-3,-23,-19,-4,-6,4,-2
1615918548202419,1,1,25,21,0,-5,3,-1
1615918548202419,-3,-3,7,-6,0,0,-10,-3
1615918548203416,-2,-1,-25,-5,0,0,1,-1
1615918548203416,-1,0,11,-8,-4,-4,0,-1
1615918548224085,2,0,2,-11,-2,1,-3,0
1615918548224085,3,-4,-3,-8,-5,1,4,2
1615918548226056,-5,-3,4,19,2,-4,-1,-6
1615918548226056,-2,-3,-16,-6,-1,-1,-2,-3
1615918548238047,0,-3,-9,-10,1,-3,-2,0
1615918548238047,0,2,23,13,1,0,2,0
1615918548246998,1,2,9,-7,-2,-4,-1,1
1615918548246998,-3,-2,6,8,-2,-1,0,-2
1615918548261959,-1,-2,0,-6,-1,-7,1,-3
1615918548261959,-5,-1,-4,-6,-1,2,0,-3
1615918548262956,0,-2,-19,2,-1,3,3,-2
1615918548262956,2,2,16,-6,1,1,-16,0
1615918548283900,2,2,8,15,1,3,4,3
1615918548283900,-1,-1,-5,0,-2,-5,-1,-1
1615918548285895,-1,-6,-11,-3,0,-1,2,-1
1615918548285895,-3,-3,-4,-25,-4,3,0,-3
1615918548297889,-2,-3,3,26,-1,-4,-5,-2
1615918548297889,-1,3,18,15,-1,-2,4,0
1615918548306839,3,-4,-13,-22,-2,-2,4,0
1615918548306839,-5,3,28,22,1,2,-13,-4
1615918548321823,1,-1,-26,-21,-3,-2,-2,0
1615918548321823,-1,3,27,-9,-2,-2,10,0
1615918548323821,3,0,10,27,0,8,1,0
1615918548323821,2,-3,-30,-4,-1,-9,-3,1
1615918548344737,-1,-4,0,-2,-2,1,-1,-2
1615918548344737,1,2,-3,-12,0,-4,-6,0
1615918548345735,-3,-2,15,9,-1,0,-4,-2
1615918548345735,-1,-2,-3,-3,1,2,9,0
1615918548357728,-5,-4,-12,-20,1,2,-7,-3
1615918548357728,1,1,0,16,0,-7,1,3
1615918548366585,-1,-1,9,-9,-1,0,-5,-2
1615918548366585,2,0,-18,-9,-1,1,3,1
1615918548381545,0,-1,15,-3,2,3,3,3
1615918548381545,-1,-1,-14,17,2,1,-2,-3
1615918548383516,-2,1,-17,-29,-1,-7,-3,1
1615918548383516,3,-2,21,11,-1,0,5,4
1615918548404266,-6,1,-3,14,0,-3,-8,-5
1615918548404266,0,-2,-11,-13,-3,-1,-2,1
1615918548406259,-5,-3,-5,-1,0,1,-1,-2
1615918548406259,1,3,12,-2,0,4,6,0
1615918548427227,2,-1,-10,-17,-2,-6,4,4
1615918548427227,-2,-1,12,31,0,0,-3,-3
1615918548428201,0,5,-1,-12,-1,-4,-5,0
1615918548428201,0,-4,-9,-2,-2,1,2,-1
1615918548442186,0,1,-9,11,3,6,-2,2
1615918548442186,-3,-3,-16,-44,-4,-6,-5,-2
1615918548443160,-1,-3,14,35,1,1,0,0
1615918548443160,-1,2,0,-4,-2,-1,2,-1
1615918548464104,-1,4,20,10,0,4,3,-2
1615918548464104,-2,-2,-12,-13,2,9,-5,-2
1615918548470112,-1,-2,-2,4,-1,-11,1,-1
1615918548470112,0,-4,-14,-16,-2,-1,-3,0
1615918548478071,0,-1,13,14,-2,0,4,2
1615918548478071,1,-2,-24,-27,-2,-2,9,0
1615918548487042,-4,0,22,31,0,1,-15,-3
1615918548487042,7,2,-14,-11,-2,-2,0,4
1615918548502690,-7,-1,6,-10,-4,1,1,-6
1615918548502690,-5,-7,-5,10,-1,-9,-3,-3
1615918548507648,1,5,16,-14,2,5,1,0
1615918548507648,-2,-1,6,16,-1,-12,-1,1
1615918548524627,0,-3,-19,-6,-2,5,-6,-2
1615918548524627,1,-2,-5,-5,-1,1,0,-1
1615918548525625,-1,-4,-6,-1,-3,-4,10,-1
1615918548525625,-2,-3,-10,-4,-2,-6,-19,-1
1615918548546545,-2,0,4,-22,-2,4,0,-4
1615918548546545,-3,1,26,26,3,0,2,-1
1615918548548540,5,4,-9,-9,-1,2,2,1
1615918548548540,-1,3,34,24,-1,-2,3,-2
1615918548561504,-4,-6,-23,-18,-4,-19,-6,-3
1615918548561504,1,-3,-11,-9,-2,2,-3,1
1615918548563499,-4,-1,-2,1,-3,0,-2,0
1615918548563499,-1,-2,-11,-8,1,0,5,-2
1615918548584444,5,-2,5,9,0,6,-3,3
1615918548584444,-3,1,-1,5,-2,-10,-4,-2
1615918548585442,-4,-9,-35,-9,-1,-1,-4,-4
1615918548585442,-1,7,15,19,1,4,-1,-1
1615918548606385,2,1,-4,-5,0,-1,2,1
1615918548606385,2,-5,-26,-6,-3,2,4,0
1615918548608379,-1,-5,-3,1,0,-2,-6,0
1615918548608379,-1,2,-11,-30,-3,-1,-5,-1
1615918548629323,-1,1,3,20,0,-3,8,-1
1615918548629323,-1,-1,14,-8,-2,2,-1,0
1615918548631318,0,0,-1,-7,-3,-7,-1,-1
1615918548631318,-2,-6,-17,-2,3,6,0,-1
1615918548644283,0,-2,6,6,2,-2,-7,0
1615918548644283,-1,4,33,12,0,-3,-2,-3
1615918548646278,3,2,-5,-11,-1,0,1,2
1615918548646278,-2,-2,5,24,0,2,0,-4
1615918548667222,2,-2,-18,-10,-4,-6,4,2
1615918548667222,-1,-1,7,23,1,-1,-20,-2
1615918548669217,0,1,8,-10,3,7,5,1
1615918548669217,-2,-2,-4,-3,-2,-2,-1,-2
1615918548681184,-2,-2,-14,-21,-3,-8,-1,-2
1615918548681184,-2,-3,-10,2,-3,5,8,-1
1615918548688166,-2,-3,-9,-5,0,-4,-8,-1
1615918548688166,-2,2,24,9,2,5,3,-1
1615918548704123,-1,1,3,2,-2,3,2,-1
1615918548704123,-1,-4,-27,-38,-4,-12,-4,0
1615918548706118,-1,-5,5,-2,1,3,-2,-2
1615918548706118,1,3,22,44,2,-2,4,2
1615918548727062,0,-3,-7,-10,0,5,2,1
1615918548727062,1,2,15,16,2,-2,-15,-1
1615918548728059,0,-2,-7,-11,-5,-2,2,-1
1615918548728059,-3,-6,-18,-14,-2,-4,-1,-2
1615918548749004,-4,-3,-6,-5,-2,-5,-3,-2
1615918548749004,4,3,29,12,1,5,6,5
1615918548750999,-7,1,-8,-2,-1,0,3,-3
1615918548750999,0,-2,-1,2,-2,4,-3,-2
1615918548771942,1,0,-12,-23,-5,-12,-6,-1
1615918548771942,-3,-3,9,21,-2,4,8,-1
1615918548773937,3,2,11,5,-2,-5,-8,1
1615918548773937,1,0,-16,-28,-3,-3,2,1
1615918548786926,-1,0,24,23,4,11,-1,-1
1615918548786926,0,-1,2,-5,2,-11,3,-1
1615918548788897,-1,-1,-1,18,-3,2,-1,0
1615918548788897,-2,-3,-17,-25,-2,3,0,-1
1615918548800865,-2,-2,3,9,0,-8,-5,0
1615918548800865,-3,-3,-21,-9,-1,7,3,-4
1615918548808843,1,3,3,-19,-1,-4,4,-1
1615918548808843,2,-1,34,45,1,0,-3,3
1615918548823830,-5,1,-5,-9,-2,1,-1,-4
1615918548823830,-3,-4,-5,-25,-5,-5,0,-2
1615918548824802,0,3,28,31,1,-3,-4,0
1615918548824802,-1,-1,-13,-13,-4,-3,-2,-1
1615918548845745,-3,-1,-6,-9,-1,-8,-4,-2
1615918548845745,-1,2,18,8,1,9,3,-2
1615918548846742,0,-2,-20,-9,0,-2,3,3
1615918548846742,1,-2,10,-5,-3,-2,2,-2
1615918548860876,0,0,14,43,1,-1,-12,-2
1615918548860876,-1,-4,-41,-29,-2,-2,-1,-2
1615918548868857,-1,1,-1,-2,1,-1,-3,-2
1615918548868857,-3,-3,-15,-12,0,-2,5,-2
1615918548883817,0,-2,4,-14,-2,-2,2,0
1615918548883817,2,1,0,20,-3,-5,-4,-1
1615918548884814,0,-6,-13,-8,-2,5,4,-2
1615918548884814,-3,-3,-7,0,-3,-2,-7,-1
1615918548905781,0,6,13,-10,1,1,-2,1
1615918548905781,-5,-2,0,-12,-2,3,-6,-1
1615918548906755,-3,-1,0,31,2,-7,1,-1
1615918548906755,0,0,-8,-24,-2,0,1,0
1615918548920717,-5,-5,-16,7,-3,2,1,-3
1615918548920717,2,4,-1,-3,2,0,4,2
1615918548928696,-3,-4,4,-17,-3,3,-5,-2
1615918548928696,2,-1,0,2,1,-7,3,1
1615918548943656,1,0,5,20,-2,-5,-14,-2
1615918548943656,-3,-3,-15,-3,-1,1,1,-1
1615918548944654,1,0,-23,-20,-2,-1,-1,1
1615918548944654,-1,-2,-3,9,0,-3,-3,-1
1615918548966596,-4,-6,-19,-29,0,4,6,-2
1615918548966596,-1,1,8,26,0,1,1,-1
1615918548966596,-1,0,-3,2,-1,-1,-14,-1
1615918548966596,-4,-4,4,0,-3,-9,0,-2
1615918548980557,3,6,26,-3,1,2,5,3
1615918548980557,0,-1,-3,-7,0,-4,-3,0
1615918548988536,-1,-5,-15,-8,-1,9,7,0
1615918548988536,-1,5,35,48,2,0,-9,-4
1615918549004494,5,1,-15,-10,-1,-8,-2,2
1615918549004494,-1,-2,3,-4,-6,-2,1,-1
1615918549004494,-1,-3,-8,-10,1,1,4,-2
1615918549004494,-2,-5,-21,-28,-3,1,-5,-3
1615918549026435,-1,0,2,17,0,2,7,1
1615918549026435,-3,-2,-8,-14,-1,-2,-9,-3
1615918549026435,0,2,9,6,-1,2,3,3
1615918549026435,-2,0,5,-10,1,2,0,-1
1615918549049374,-4,-5,-17,-7,1,-1,-1,-4
1615918549049374,0,-1,-13,-10,-1,-2,6,1
1615918549050372,0,1,25,20,-1,-7,-4,-1
1615918549050372,2,-1,-3,-17,0,9,0,1
1615918549063336,-1,-3,-2,18,0,0,1,-2
1615918549063336,-2,-4,-22,-34,0,-8,-5,-2
1615918549064334,2,2,30,31,-1,3,4,3
1615918549064334,-2,0,-4,-3,3,-4,1,-2
1615918549086275,-1,-2,3,-3,-2,-5,2,-1
1615918549086275,2,1,-6,-2,-1,7,1,-1
1615918549087298,-1,0,8,-4,-2,-7,-7,-2
1615918549087298,1,-1,-11,-3,1,1,7,0
1615918549109239,0,-1,17,7,-1,5,-4,-3
1615918549109239,0,0,4,9,-1,-15,6,1
1615918549110211,-1,-3,-17,-15,1,7,1,-1
1615918549110211,-3,-3,-10,13,-3,3,-5,-1
1615918549123201,0,-1,-1,-11,-1,-9,-1,-1
1615918549123201,-3,-2,17,-4,-1,9,1,-1
1615918549124198,-1,-3,-12,10,-3,-8,0,0
1615918549124198,0,2,8,-10,-1,-4,-4,-3
1615918549146140,-1,-2,-2,4,-1,7,1,4
1615918549146140,-2,1,0,5,1,-1,-3,-1
1615918549147113,-3,-1,-4,-23,-2,-8,-2,-1
1615918549147113,-2,-4,-13,5,0,1,-1,-1
1615918549169054,2,1,17,6,-3,-2,0,-2
1615918549169054,-1,-2,-4,0,0,5,-2,0
1615918549169054,0,-5,-31,-16,-1,-5,7,-3
1615918549169054,1,6,37,16,1,0,-10,1
1615918549183245,0,1,-17,-19,0,-4,4,0
1615918549183245,-4,-6,-4,14,-2,-1,-20,-4
1615918549184244,-1,3,19,9,0,1,1,-1
1615918549184244,-1,-2,-16,-14,-1,1,4,-1
1615918549206106,-2,-1,-2,-8,0,-1,-1,-2
1615918549206106,4,1,7,7,2,-1,6,3
1615918549207104,-3,-2,-6,-1,0,-1,-4,-3
1615918549207104,-2,1,4,-8,-5,-7,-2,0
1615918549229069,1,2,3,1,-1,4,0,0
1615918549229069,1,-1,17,6,-2,-5,3,-3
1615918549229069,-2,2,5,-2,-4,0,-5,-3
1615918549229069,-2,-6,-21,4,-2,3,3,1
1615918549243761,-1,1,-6,-1,2,5,-2,-1
1615918549243761,-2,-2,-4,-25,-2,-11,2,-1
1615918549244765,-4,1,15,24,2,5,-5,-2
1615918549244765,-3,-4,-13,1,-2,-5,-4,-3
1615918549265709,-1,-2,-5,-4,0,-5,-2,2
1615918549265709,-1,0,1,0,-1,5,9,-1
1615918549266680,0,3,14,-7,0,-3,-9,-1
1615918549266680,-1,-2,-5,-2,2,-2,1,-1
1615918549288621,-1,-4,-7,0,1,6,-1,0
1615918549288621,0,1,9,12,0,-1,0,0
1615918549289619,-2,-5,-9,-9,0,-1,3,-2
1615918549289619,1,-1,7,-14,-3,1,-1,-1
1615918549303581,-2,0,11,6,0,4,1,-3
1615918549303581,-1,-1,11,16,-1,-8,-7,-2
1615918549304578,0,-2,-4,19,-5,-3,7,-2
1615918549304578,-1,1,-14,-18,-2,0,-5,-1
1615918549326520,0,0,4,-5,-4,0,-3,-1
1615918549326520,-1,-1,-18,-5,-1,3,-1,-2
1615918549326520,-1,-3,4,-17,-1,-1,-3,-2
1615918549326520,2,-1,7,13,-1,-3,9,2
1615918549348404,2,-1,-12,-5,-2,-2,-3,0
1615918549348404,-4,4,7,7,-3,-1,-4,-4
1615918549349400,0,-6,-22,-25,-1,2,2,-1
1615918549349400,-4,-2,-14,-2,1,0,0,-1
1615918549363363,-3,2,44,14,-1,-5,-7,-2
1615918549363363,1,-3,3,20,-1,-3,5,-1
1615918549364360,0,-2,-8,-7,1,-1,-1,2
1615918549364360,1,2,3,-18,-3,4,0,0
1615918549386326,-1,-1,-6,10,0,-10,-15,-3
1615918549386326,-2,-4,-9,-12,-3,-4,4,-1
1615918549387324,-1,0,1,6,-3,-4,1,-1
1615918549387324,-4,-2,5,1,-1,3,0,-2
1615918549408242,-1,-2,-10,-5,-1,0,2,-4
1615918549408242,3,0,-19,-10,-1,2,-7,0
1615918549409240,0,2,-1,2,4,2,0,-1
1615918549409240,0,-2,-8,3,-2,-6,-6,-2
1615918549425198,-2,2,1,-3,-2,-2,1,0
1615918549425198,0,-3,-23,-12,-2,-1,-2,1
1615918549426195,0,0,23,23,0,6,1,1
1615918549426195,2,0,5,10,2,-3,-1,0
1615918549446165,-3,-5,-19,-15,0,0,2,-1
1615918549446165,0,0,12,-3,1,6,7,1
1615918549447140,1,2,-2,6,-2,-6,-24,-1
1615918549447140,-2,-1,-8,-5,0,0,3,-2
1615918549469081,0,-1,10,3,-1,-6,7,0
1615918549469081,-2,-2,-3,3,-1,-7,-8,-3
1615918549469081,0,1,10,-3,-2,0,5,0
1615918549469081,-3,-3,-2,2,-3,-6,-5,-4
1615918549483730,0,-3,-33,-30,-3,7,2,1
1615918549483730,0,6,43,25,3,6,3,-1
1615918549484728,-4,2,9,7,1,0,3,-1
1615918549484728,-1,-3,-3,1,-4,-11,1,1
1615918549506667,-3,-3,0,-8,-3,1,0,-1
1615918549506667,-3,-4,-13,-14,-1,-1,2,-2
1615918549506667,1,-2,-12,-3,-1,0,-16,-1
1615918549506667,0,0,2,-2,0,1,-1,-2
1615918549529256,-3,-1,6,11,1,0,1,0
1615918549529256,0,0,-2,-9,-3,-6,-3,1
1615918549529256,0,-1,-18,0,1,0,7,0
1615918549529256,-3,1,19,-10,0,0,-3,-2
1615918549543250,1,3,11,28,-1,-8,-5,-1
1615918549543250,-4,-2,-17,5,-2,5,-1,0
1615918549544218,0,-4,-29,-29,-1,-6,11,0
1615918549544218,2,0,-6,-6,-1,-1,-5,0
1615918549566160,-1,-6,-1,4,-1,1,-2,-3
1615918549566160,-2,-3,-14,-15,-1,-2,-2,-1
1615918549567157,-3,-2,12,2,-4,1,3,-4
1615918549567157,0,2,1,11,1,2,2,3
1615918549589122,1,-1,-15,-15,-2,1,-1,-1
1615918549589122,-3,-2,-4,13,0,1,7,-1
1615918549589122,-1,-3,-1,-25,-3,-7,-17,-4
1615918549589122,-2,4,32,28,1,1,-2,-1
1615918549604083,0,-3,-19,-6,-1,-5,1,2
1615918549604083,-2,-6,-14,-16,-3,-4,-4,-3
1615918549604083,0,3,-10,10,0,5,9,1
1615918549604083,-2,1,4,-7,-1,-3,-3,-3
1615918549627021,-1,-2,-5,-3,1,5,-3,-2
1615918549627021,0,2,11,4,0,-3,-2,-1
1615918549627021,-5,-6,2,-6,-2,0,1,-4
1615918549627021,3,0,-24,-4,1,3,-1,3
1615918549648962,-2,0,-2,-20,-3,-6,1,-3
1615918549648962,3,5,31,36,0,1,1,2
1615918549649936,-1,-4,-9,-14,-1,4,7,1
1615918549649936,-2,-3,27,13,-2,-10,-13,-5
1615918549663922,0,1,-5,-14,-1,-4,-6,-3
1615918549663922,-2,4,14,6,1,3,-6,-1
1615918549664922,0,-1,-3,-6,-3,-5,4,0
1615918549664922,1,-4,-20,10,2,7,7,0
1615918549685864,1,-3,-19,-7,-2,-12,0,3
1615918549685864,-1,1,18,-3,-1,2,-3,-1
1615918549686838,-2,-1,1,14,-2,-1,-1,-1
1615918549686838,-2,0,-11,-15,-1,5,0,-2
1615918549716771,-2,-1,19,6,-3,-4,-5,-3
1615918549716771,-3,-6,-26,2,-2,0,-1,-2
1615918549717755,0,1,6,-22,-1,1,-1,3
1615918549717755,-3,-3,-4,-2,-3,-3,-2,-1
1615918549723767,1,7,37,24,3,5,2,-1
1615918549723767,-3,-6,-24,-26,0,-1,5,-2
1615918549724736,1,0,12,13,0,-3,-17,-2
1615918549724736,0,-4,-19,-11,0,6,2,1
1615918549745704,-2,0,8,12,2,3,7,0
1615918549745704,-3,-4,-11,-11,-3,-16,-9,-1
1615918549746677,-1,-1,-16,-10,0,2,1,0
1615918549746677,-2,2,24,26,1,-4,1,-3
1615918549768645,1,-2,-16,-5,-1,5,-3,-1
1615918549768645,1,0,-14,-31,-1,4,4,0
1615918549769645,-3,-3,4,8,-1,-3,1,-2
1615918549769645,-1,-2,8,14,-2,-6,-2,-4
1615918549783580,2,0,-6,-2,-2,4,4,4
1615918549783580,0,-3,-4,-19,-2,6,-2,-2
1615918549791582,0,0,13,7,-2,-17,1,-1
1615918549791582,1,3,5,-2,0,2,-4,0
1615918549806542,-1,-2,1,-5,-2,-4,0,-1
1615918549806542,-3,-3,9,0,-3,4,-4,-1
1615918549806542,0,3,19,23,1,5,6,1
1615918549806542,-2,-1,-1,-17,-2,-2,3,-1
1615918549828482,-3,-3,-19,0,-4,-3,-7,-2
1615918549828482,-1,2,7,10,3,7,0,-1
1615918549829455,-3,-3,5,2,-2,-10,-4,-4
1615918549829455,0,-5,-26,-17,-3,-8,-1,0
1615918549843418,-3,-1,14,2,0,6,-4,0
1615918549843418,-1,1,-7,10,0,-6,5,-1
1615918549844415,0,1,3,5,-1,6,-5,-1
1615918549844415,0,-3,-6,-17,0,-3,-2,-3
1615918549866382,-1,-3,-10,-6,-1,-2,5,1
1615918549866382,0,1,12,20,-1,-2,-23,-3
1615918549867355,-2,0,-17,-20,0,3,4,-2
1615918549867355,-2,-1,2,-3,-2,0,-1,-2
1615918549888325,-2,1,7,16,0,-2,-1,-4
1615918549888325,-1,-2,-3,-24,0,-6,6,0
1615918549889296,0,2,19,23,0,-1,-1,1
1615918549889296,0,0,-8,-5,-1,0,-1,1
1615918549903259,-2,-4,-23,-12,-4,1,-1,-3
1615918549903259,2,3,5,21,3,-5,0,2
1615918549911262,-4,-1,-9,-13,-1,9,2,-3
1615918549911262,2,-1,-1,-11,-1,-10,4,1
1615918549926222,-4,-5,5,5,0,-1,1,-4
1615918549926222,-1,1,6,18,1,0,-13,-1
1615918549927219,2,-3,-26,-13,0,1,2,0
1615918549927219,1,1,24,13,0,0,0,-1
1615918549948749,-1,-2,-3,-8,0,-2,8,-2
1615918549948749,-1,-1,-3,-1,-2,-2,-8,-2
1615918549949721,1,0,9,10,0,0,-4,0
1615918549949721,-4,-2,-9,-12,-2,-2,-1,-2
1615918549971686,1,1,-13,-7,-2,-3,-2,0
1615918549971686,0,-1,12,4,-1,2,7,0
1615918549972659,-2,-2,-14,-8,-1,-5,-3,1
1615918549972659,-4,-2,-4,3,0,-2,-3,-2
1615918549994610,-1,1,5,-1,-1,-4,-5,0
1615918549994610,-1,0,-5,-11,-1,4,4,0
1615918549995599,0,-4,-20,-10,-1,0,6,-2
1615918549995599,-1,-2,-15,19,2,2,-12,-1
1615918550016542,1,7,44,17,2,4,1,2
1615918550016542,-2,-2,-15,0,-3,-2,3,-1
1615918550017540,-3,0,11,3,-2,-2,2,0
1615918550017540,0,-6,-35,-23,-5,-1,4,2
1615918550023523,-2,-1,0,-1,-2,-3,-8,-2
1615918550023523,0,-1,-5,-8,-1,1,1,1
1615918550031526,-1,0,-2,-5,-2,-2,2,0
1615918550031526,-1,2,12,5,0,-2,-1,0
1615918550046489,-4,-2,-10,-8,-4,2,-6,-2
1615918550046489,0,-1,0,-2,-3,1,11,0
1615918550047494,0,1,7,-13,0,-7,-18,-4
1615918550047494,0,0,10,15,3,4,2,-1
1615918550068404,0,-2,16,24,0,-1,-3,-3
1615918550068404,-1,-6,-22,-32,-2,2,8,-3
1615918550069418,0,0,10,16,0,-5,-13,-2
1615918550069418,0,7,23,6,-1,3,3,-2
1615918550083364,0,-2,-20,-19,0,-3,1,3
1615918550083364,-2,-2,0,5,-1,-10,-4,0
1615918550091342,-3,-5,-15,-6,-2,1,4,-3
1615918550091342,1,0,28,2,-2,1,-2,1
1615918550106326,1,1,-15,-3,0,2,1,0
1615918550106326,-2,1,14,9,1,-2,-1,-1
1615918550107300,2,-1,-3,-1,-1,0,0,0
1615918550107300,-3,-2,-2,-1,0,-6,-2,-2
1615918550128268,-2,-1,-9,-18,2,4,1,-1
1615918550128268,-1,-1,14,34,-1,-7,-4,0
1615918550129278,-3,2,-6,-12,-2,3,0,0
1615918550129278,-1,-2,-15,-12,-3,0,5,-1
1615918550143227,-1,0,5,0,-2,-5,-4,-1
1615918550143227,-1,-2,-6,-12,-1,3,-15,-3
1615918550159184,1,0,-6,0,-1,-8,5,2
1615918550159184,-1,1,5,-1,-3,-1,0,-1
1615918550166169,-1,-3,-1,-2,-1,1,4,-2
1615918550166169,0,1,-14,11,2,4,1,1
1615918550167141,0,-2,3,3,-2,-2,-2,-1
1615918550167141,-1,-2,-5,-23,-1,2,0,0
1615918550188290,0,-3,-6,17,2,-4,-2,-2
1615918550188290,1,-2,-28,-18,-4,2,-1,-3
1615918550189288,-2,-1,16,3,-1,1,1,-4
1615918550189288,-1,-3,-5,4,0,-5,-1,1
1615918550203251,2,0,-5,-9,-1,-1,-4,-1
1615918550203251,-3,0,7,-4,0,1,1,-1
1615918550211228,0,0,0,6,-1,-3,5,2
1615918550211228,-5,-5,-8,0,-2,-2,-25,-5
1615918550226201,2,3,8,-6,-2,1,6,1
1615918550226201,-1,-2,2,-2,0,-1,-2,0
1615918550227198,1,-1,38,18,1,-1,7,1
1615918550227198,2,4,-12,8,0,6,-3,-1
1615918550249149,-3,-2,2,-26,0,-6,-3,-2
1615918550249149,2,-1,-1,24,1,-6,4,1
1615918550249149,-4,1,1,-19,0,4,-4,0
1615918550249149,-2,-3,15,19,1,-1,2,-2
1615918550272102,1,4,6,-6,-1,0,-3,-1
1615918550272102,1,-3,5,-5,0,-2,6,0
1615918550273104,-4,-5,-17,-6,1,1,-3,-3
1615918550273104,0,-1,-14,-15,-2,1,-1,-2
1615918550286046,-2,2,18,24,-1,2,2,1
1615918550286046,-3,0,20,1,-1,-4,-1,-1
1615918550287044,1,0,-7,7,1,0,6,0
1615918550287044,-1,-2,-11,-14,-1,-3,1,-1
1615918550309010,-3,-3,-19,0,0,-1,-6,-2
1615918550309010,-1,-5,-24,-37,-4,3,2,-3
1615918550310001,1,5,21,51,2,-5,-2,0
1615918550310001,-2,0,0,-9,1,-2,-2,0
1615918550331949,-3,-2,-4,-2,-5,-2,1,-3
1615918550331949,0,-1,0,-1,2,-1,-2,0
1615918550332953,-1,-5,-32,-22,-1,1,0,0
1615918550332953,-1,1,11,8,1,2,7,-1
1615918550346909,-2,-4,-20,-4,0,-1,1,-1
1615918550346909,-5,1,11,-4,-1,-3,-12,-5
1615918550347882,1,2,2,17,-2,-2,-1,1
1615918550347882,1,0,8,4,-1,-4,4,-1
1615918550368850,-5,-5,-8,-11,-1,4,5,-2
1615918550368850,-1,-2,-10,13,-3,-1,0,1
1615918550369848,-1,-1,-16,-31,-1,-3,-4,-1
1615918550369848,2,2,21,5,2,1,2,-1
1615918550392785,-1,-1,7,22,1,7,-4,-1
1615918550392785,0,-2,-11,-3,0,-17,-2,0
1615918550392785,-1,0,-3,-8,-3,1,-3,1
1615918550392785,-2,-4,-4,-6,-5,-4,0,-1
1615918550405726,-1,0,-6,-1,-1,0,-4,-1
1615918550405726,2,0,-4,-10,2,3,2,-1
1615918550406724,2,-2,15,13,1,0,-2,0
1615918550406724,-2,0,17,8,1,4,0,0
1615918550428690,-1,1,5,3,0,-3,5,0
1615918550428690,2,1,12,9,0,2,0,2
1615918550429663,-4,-3,-18,-25,-1,-5,-5,-3
1615918550429663,-3,-4,-32,3,-2,5,9,-1
1615918550450637,1,8,33,3,0,-7,-13,1
1615918550450637,-4,0,-6,4,-2,5,4,-1
1615918550458610,-2,-1,11,-12,-3,2,-6,-3
1615918550458610,-2,-3,3,3,0,-2,1,1
1615918550466564,-1,-1,0,-6,-1,3,4,-1
1615918550466564,-3,-1,9,-9,-4,0,-5,-4
1615918550466564,0,1,2,11,1,-7,-1,-1
1615918550466564,1,-1,-25,-15,-3,-3,-4,1
1615918550488530,2,0,13,17,-2,-3,-3,1
1615918550488530,-2,-2,1,-2,1,2,2,1
1615918550489503,-3,-6,-11,-7,-3,3,-10,-5
1615918550489503,1,3,5,4,0,2,2,0
1615918550511468,0,-6,-22,-8,-1,-10,-4,-1
1615918550511468,-6,-2,-4,1,-2,3,1,-2
1615918550512471,0,-1,-16,-8,1,4,6,-2
1615918550512471,-1,1,8,-8,-1,-7,-1,-3
1615918550526429,1,-2,-6,14,3,5,0,2
1615918550526429,1,0,3,-2,-1,-7,-1,-2
1615918550527429,-2,0,8,0,0,3,-1,-1
1615918550527429,1,3,24,22,0,0,-5,-1
1615918550548370,-1,-3,-18,-19,-3,1,6,-2
1615918550548370,-1,1,8,4,2,1,4,-1
1615918550549368,1,1,-5,13,-2,-9,-14,-2
1615918550549368,-3,-5,-8,-6,-1,4,1,-1
1615918550571284,0,2,9,-8,-2,-5,6,1
1615918550571284,1,-3,-9,0,-2,-5,-19,-2
1615918550572281,-2,2,12,-2,0,3,5,0
1615918550572281,0,-5,-21,-24,-2,-2,-2,0
1615918550586269,-1,1,9,29,-1,-2,0,-4
1615918550586269,0,2,7,-5,2,3,0,0
1615918550587242,-1,-1,-12,-13,1,-1,3,0
1615918550587242,-2,-3,-14,-3,0,-1,-3,-4
1615918550609183,0,0,14,-3,1,-2,-6,-1
1615918550609183,-2,-2,4,26,1,1,3,-2
1615918550609183,-2,-2,-18,-9,-1,-3,1,1
1615918550609183,2,0,3,0,-1,1,2,0
1615918550631149,-3,-4,-18,-27,-4,-8,-4,-2
1615918550631149,0,2,10,9,-2,1,-2,0
1615918550632122,1,0,19,12,0,0,4,-1
1615918550632122,-2,-2,-8,-6,-1,-2,2,-3
1615918550646108,0,2,3,5,0,1,-18,0
1615918550646108,-2,2,13,4,0,-2,8,2
1615918550647082,-3,-6,-14,-11,-4,1,-10,-3
1615918550647082,-2,1,23,20,-1,-4,0,1
1615918550669048,-1,-3,-21,-16,-3,2,2,-3
1615918550669048,0,-2,3,1,-3,-1,3,-3
1615918550669048,0,-3,-28,-21,0,0,-1,-2
1615918550669048,-1,-2,1,15,-1,-4,-1,-1
1615918550690964,-2,-3,-5,-1,1,2,0,-1
1615918550690964,1,-2,-8,-15,-3,-2,-5,-1
1615918550691961,0,1,8,-4,-2,-1,7,-1
1615918550691961,0,-1,-14,-5,-1,-5,3,0
1615918550705924,-2,0,8,9,-1,3,-14,-3
1615918550705924,-3,-7,-17,-21,-2,-6,-3,-2
1615918550706922,0,0,14,24,1,2,2,0
1615918550706922,-2,-1,-22,-31,-3,4,2,-1
1615918550728887,1,4,30,45,0,-6,4,0
1615918550728887,-1,-3,-9,-17,-1,5,0,0
1615918550729886,-3,0,4,4,-2,-5,-1,-2
1615918550729886,1,0,6,-12,-1,0,-7,0
1615918550751627,-2,-6,-25,7,1,-1,5,-3
1615918550751627,1,8,6,-5,1,1,-2,-1
1615918550751627,0,-1,3,3,-1,-3,-2,-1
1615918550751627,-3,-2,-6,0,0,0,-1,-1
1615918550766586,-2,-1,-8,-20,-3,-4,1,0
1615918550766586,1,-2,3,11,-2,-2,9,2
1615918550766586,0,0,-8,6,0,3,-3,-2
1615918550766586,1,5,15,4,0,0,-6,-1
1615918550788527,-2,-4,-11,-23,-2,2,0,1
1615918550788527,-1,-4,-39,-13,-4,0,-1,0
1615918550789525,-2,6,60,7,-1,-6,4,-1
1615918550789525,0,0,-3,8,0,0,-6,-1
1615918550811490,-2,-1,7,17,0,-3,0,-2
1615918550811490,-2,-3,-17,-26,-1,2,-1,-4
1615918550812482,2,0,-7,2,-1,1,0,2
1615918550812482,0,-1,4,-2,1,0,0,-2
1615918550826452,0,4,14,-1,2,1,0,-1
1615918550826452,-1,0,17,3,1,-2,-5,-2
1615918550827448,0,-3,-14,0,0,4,0,-2
1615918550827448,-2,-2,13,4,-2,-5,-1,-2
1615918550848395,0,-3,-27,-11,0,3,7,0
1615918550848395,-1,-2,0,-11,-3,1,-6,-1
1615918550849393,0,2,5,25,0,-10,-1,1
1615918550849393,-1,-2,-4,-11,-2,2,-2,-1
1615918550871334,1,1,12,-16,-2,-4,1,1
1615918550871334,1,2,45,58,2,4,3,0
1615918550872332,-1,-4,-19,-36,-1,8,1,0
1615918550872332,-2,-3,-4,15,-1,-5,0,-1
1615918550886295,-1,0,-1,-2,-2,-9,-3,-2
1615918550886295,-1,-1,1,-7,-1,0,-4,0
1615918550887292,-2,-3,-13,-6,-2,0,-4,-3
1615918550887292,1,-1,-9,1,-2,2,-3,0
1615918550908260,-1,-1,10,-18,-2,1,8,3
1615918550908260,-1,-1,-1,17,0,-4,2,-1
1615918550909261,-3,-2,-10,-7,-3,-3,-4,-3
1615918550909261,-2,-3,0,-1,-2,-3,0,-2
1615918550931201,1,5,10,2,-2,-2,-5,0
1615918550931201,-2,-4,-1,-3,-3,0,2,-1
1615918550932172,2,1,1,9,-1,-1,2,1
1615918550932172,0,-1,-17,-35,-3,-2,-4,2
1615918550946159,0,-1,31,50,1,0,4,-2
1615918550946159,-1,-1,-9,-11,-2,-2,-13,-1
1615918550947132,-2,-2,-5,-13,-3,-1,-1,-1
1615918550947132,-2,0,2,7,2,0,-1,-1
1615918550969097,4,-1,-23,-13,0,4,0,4
1615918550969097,-3,-4,-10,-18,-2,-7,-1,-5
1615918550970071,0,-1,7,22,0,2,-2,-1
1615918550970071,-1,-1,-3,-3,-1,-1,-1,-1
1615918550991673,-4,-2,-8,-5,-4,-2,7,-3
1615918550991673,0,2,2,8,0,1,-18,-2
1615918550991803,-3,-2,-18,-40,-3,-2,3,-1
1615918550991803,0,3,26,27,1,1,3,0
1615918551005770,0,-3,-3,2,1,0,-2,-2
1615918551005770,1,1,-2,-8,-1,2,6,0
1615918551013749,0,-3,-12,3,-2,-7,-1,1
1615918551013749,-4,1,-6,-5,-1,1,-4,-3
1615918551028708,-4,-4,-14,-11,-4,0,-8,-2
1615918551028708,0,1,1,-3,-1,-4,2,0
1615918551029705,1,0,11,12,2,8,-1,1
1615918551029705,-1,-1,2,-6,-2,-13,0,-4
1615918551050974,-1,-1,-10,2,0,3,10,1
1615918551050974,-2,-2,0,-8,-4,-8,-27,-3
1615918551051947,-3,2,8,-12,-1,4,4,-4
1615918551051947,0,1,19,39,1,-1,0,1
1615918551065909,-1,-4,-15,-22,-3,0,-4,-1
1615918551065909,0,-2,-19,-10,-2,-4,11,2
1615918551073913,0,4,39,14,2,1,0,0
1615918551073913,-1,-5,-16,-16,-1,5,0,0
1615918551088880,-2,2,6,13,1,-4,-5,-1
1615918551088880,-3,-4,-11,-3,0,1,5,-3
1615918551089846,2,1,-2,9,-2,-5,-4,1
1615918551089846,0,0,-4,-10,-3,-1,3,-1
1615918551110817,0,-3,-10,-13,-3,-3,-6,-3
1615918551110817,-1,3,7,12,0,4,6,0
1615918551111791,-3,-2,-3,-5,-3,-6,-3,-3
1615918551111791,0,-2,-4,-7,0,2,3,1
1615918551125749,-4,-5,-10,-2,0,-1,1,-5
1615918551125749,0,-1,-8,-21,0,0,-18,-2
1615918551133730,2,-1,10,34,-2,-6,4,0
1615918551133730,1,2,0,-4,1,0,2,1
1615918551148688,-4,1,11,-2,-1,3,0,-1
1615918551148688,2,-2,2,2,1,4,10,1
1615918551149686,-3,-4,-9,-4,-1,-2,-12,-5
1615918551149686,-1,-2,-6,-7,-3,-8,-6,-2
1615918551171627,1,1,0,-16,-1,3,-2,1
1615918551171627,-4,-4,-20,27,0,-5,4,-2
1615918551171627,3,6,27,-5,2,5,5,4
1615918551171627,-2,-5,-11,-5,-2,-3,-3,-4
1615918551185614,-2,-3,-16,-18,-3,-4,-7,-2
1615918551185614,-1,4,20,11,0,1,4,-3
1615918551193593,-1,-3,-20,-13,-2,1,10,1
1615918551193593,-1,5,25,14,-1,-1,-24,-3
1615918551208553,-2,-4,0,-4,1,2,1,1
1615918551208553,0,0,-2,-23,1,2,0,0
1615918551209526,-2,-3,-1,18,-2,-9,-2,-5
1615918551209526,1,-5,-23,-16,0,0,7,1
1615918551231491,2,3,29,12,-1,-1,-6,-1
1615918551231491,2,2,6,-2,0,2,3,2
1615918551232497,-2,-1,-2,1,1,5,-2,-2
1615918551232497,-5,-8,-18,-19,-4,0,-1,-2
1615918551245454,3,3,15,34,3,-13,-2,-1
1615918551245454,-1,0,-13,0,-3,-2,4,1
1615918551253434,-1,-1,-2,-11,0,-2,-4,-1
1615918551253434,-2,-1,-1,-3,-1,1,5,1
1615918551269393,1,1,-10,-4,0,4,2,-1
1615918551269393,-2,-3,-1,-4,-2,-5,5,0
1615918551270393,-2,-2,-3,-7,-1,-4,-15,-3
1615918551270393,2,4,7,12,3,5,7,2
1615918551291334,-4,-2,-4,9,-2,2,0,1
1615918551291334,0,-2,2,2,-3,-2,2,-1
1615918551293326,-2,-4,-6,-11,-3,-1,5,0
1615918551293326,1,3,0,14,-1,-7,-2,-2
1615918551305295,-1,0,-14,-10,2,0,1,-1
1615918551305295,0,-2,4,-3,1,3,-4,0
1615918551313277,0,2,18,9,1,3,0,0
1615918551313277,1,-1,9,23,-3,-4,-6,0
1615918551329232,-1,1,1,-6,-3,-1,1,-3
1615918551329232,-2,-4,-9,-4,0,1,-3,-3
1615918551330203,-2,-3,-14,-17,-2,-1,7,1
1615918551330203,0,-2,-7,0,1,-3,1,1
1615918551351147,-1,-2,6,2,-2,-2,-7,-1
1615918551351147,-2,0,-3,2,-1,2,0,-1
1615918551352144,-2,-3,-11,-10,-1,1,-1,-2
1615918551352144,-2,-2,3,-4,-1,3,10,-1
1615918551374085,-2,-4,-8,3,1,-4,-4,0
1615918551374085,0,4,8,-1,0,-2,-3,-2
1615918551375083,-4,-5,-15,3,-2,-3,-2,-1
1615918551375083,1,-1,10,-3,1,8,2,0
1615918551389046,-1,2,3,-13,0,-8,-3,-3
1615918551389046,2,3,1,12,-2,2,2,3
1615918551390043,-1,-2,0,0,-1,-1,-1,-2
1615918551390043,-3,-2,-8,4,1,0,-3,-1
1615918551410987,0,-4,-7,-10,-1,3,0,-2
1615918551410987,0,-1,6,2,-2,-5,1,-1
1615918551411984,0,3,18,1,-2,-9,3,0
1615918551411984,-2,-2,1,-10,-1,4,-3,0
1615918551434489,-3,-4,-18,8,-1,1,-5,-1
1615918551434489,-1,-5,-13,-12,-1,-8,0,0
1615918551435487,1,-2,-4,7,0,9,-3,-1
1615918551435487,2,2,-16,-31,0,-4,6,1
1615918551456458,0,2,14,18,-1,-5,1,1
1615918551456458,-2,-5,-6,-11,-1,4,-3,-5
1615918551457462,-5,-5,-20,-32,0,-2,-7,-2
1615918551457462,0,1,24,34,0,-2,-3,-1
1615918551471416,-1,1,-5,-14,-3,6,0,-3
1615918551471416,1,2,16,11,0,0,4,1
1615918551472415,0,-1,9,-6,-3,-3,-9,1
1615918551472415,-2,-3,-17,-2,0,0,-1,-3
1615918551494353,2,-1,8,2,1,0,1,0
1615918551494353,-4,-3,-15,-10,-4,-3,-3,-1
1615918551495327,0,0,-7,4,-2,-3,3,-2
1615918551495327,-1,0,27,7,-3,-5,-4,-2
1615918551508316,-1,-4,-18,-11,-2,0,0,-3
1615918551508316,-2,-1,-4,0,-1,1,1,2
1615918551509289,1,2,-12,5,1,8,-2,-1
1615918551509289,-2,-2,-11,-4,-4,-14,-1,0
1615918551531255,-3,-4,-3,-13,1,2,0,-2
1615918551531255,-4,-2,0,-9,-1,1,-4,-2
1615918551532228,2,5,10,20,0,3,2,1
1615918551532228,0,-2,-7,3,0,6,3,0
1615918551554169,-1,1,19,12,-1,-6,-15,-1
1615918551554169,-1,-5,-17,-22,-5,-11,0,-1
1615918551555168,-3,0,16,-2,0,3,0,-1
1615918551555168,1,1,2,21,-1,3,4,1
1615918551569154,1,-2,-5,-9,-3,-2,4,0
1615918551569154,-3,-1,1,4,0,0,-4,-3
1615918551569154,-3,-5,-16,-3,-1,-4,1,-1
1615918551569154,-4,-4,-5,-14,-1,-7,-9,-3
1615918551591095,1,2,0,2,-1,3,6,1
1615918551591095,1,0,34,22,6,1,4,0
1615918551593066,1,2,-19,-12,-1,-10,-3,0
1615918551593066,-3,-3,-1,-18,-3,4,1,-1
1615918551614033,1,1,-6,15,-1,4,4,0
1615918551614033,0,-4,-4,-4,-2,-12,-19,-6
1615918551615035,1,3,23,-9,-1,7,4,-2
1615918551615035,2,0,12,16,2,5,-3,-1
1615918551628969,-1,-3,-8,-10,-3,-17,2,-2
1615918551628969,-2,1,-1,-8,-3,8,4,0
1615918551629967,0,-1,-3,7,1,1,-1,0
1615918551629967,-3,0,-17,-12,-2,-4,-6,-3
1615918551650910,2,2,16,3,-2,2,2,2
1615918551650910,-1,-2,-7,6,-2,-3,2,0
1615918551651908,-2,-1,22,6,-1,-3,-4,-1
1615918551651908,1,-1,-13,-15,-3,3,4,-2
1615918551674271,1,2,2,12,1,2,-2,1
1615918551674271,0,-2,-11,-7,-5,-6,1,-1
1615918551675245,1,1,5,0,3,4,8,1
1615918551675245,-2,-2,-5,5,1,-7,-16,-2
1615918551689208,-2,0,31,-7,-4,-7,2,-1
1615918551689208,0,2,2,14,0,1,2,1
1615918551689208,0,-4,-14,-3,0,6,1,1
1615918551689208,0,-4,-20,-7,-3,-16,0,-2
1615918551711511,1,1,11,3,1,7,-1,-1
1615918551711511,1,4,3,-5,0,5,2,1
1615918551712507,-3,-4,-1,5,-4,-12,-3,-1
1615918551712507,1,1,1,0,0,4,-2,0
1615918551734803,-4,-7,-25,-8,-1,1,-4,-1
1615918551734803,2,4,18,4,0,-1,1,-1
1615918551734803,-2,-3,-11,1,-2,2,-3,-5
1615918551734803,-3,0,5,3,-1,-4,-2,-2
1615918551748790,-2,1,-18,-12,-2,-1,2,-2
1615918551748790,3,1,20,18,1,5,-3,2
1615918551749763,-4,-10,-30,-22,-4,-7,-7,-3
1615918551749763,5,6,29,25,4,8,9,3
1615918551771729,-1,-2,-6,-2,0,-6,-3,-1
1615918551771729,-1,-3,-23,-15,-1,0,4,-1
1615918551771729,1,0,-5,-11,0,-2,2,-1
1615918551771729,-2,-1,-4,-1,-3,0,1,0
1615918551801490,0,-1,-1,-5,-2,4,1,0
1615918551801490,-2,0,-6,3,-3,-2,-4,-4
1615918551802487,-3,-1,6,-1,0,-2,0,0
1615918551802487,-3,0,7,-8,-3,-4,-1,-1
1615918551808497,-1,-6,-7,5,-3,-6,-4,-1
1615918551808497,-2,0,2,-11,-1,1,0,-2
1615918551809468,4,6,29,25,1,2,-2,2
1615918551809468,-2,-4,-9,-23,-1,1,5,-1
1615918551831435,-1,-3,-9,8,0,2,-18,-2
1615918551831435,-4,-2,16,0,0,-5,-2,-4
1615918551832434,-2,-1,-14,-6,-4,-3,0,0
1615918551832434,2,1,13,6,0,-2,-1,0
1615918551853380,-1,-2,0,-8,1,3,5,-1
1615918551853380,2,-3,-10,-1,-1,-4,-2,1
1615918551854376,-4,-5,-9,-6,-1,-3,-6,-3
1615918551854376,0,4,5,9,-2,-1,0,-1
1615918551868311,-1,1,-11,8,0,-1,-3,-2
1615918551868311,-3,-1,5,-3,-1,6,-2,-2
1615918551869308,-2,3,-7,-7,-2,-8,2,-1
1615918551869308,1,-7,-46,-40,-4,4,1,2
1615918551891273,-3,2,57,37,1,-1,5,1
1615918551891273,-1,-2,9,4,0,-11,4,1
1615918551893245,-1,-3,-12,-1,0,1,-21,-3
1615918551893245,-3,-3,4,-12,-1,0,3,-2
1615918551914213,-1,0,-5,-8,1,6,4,2
1615918551914213,-2,-6,-31,-12,-2,-3,-2,-3
1615918551914213,4,6,31,23,-4,-2,6,3
1615918551914213,-2,0,-1,5,1,3,-3,-2
1615918551929148,0,-5,-7,-19,-1,-10,0,-1
1615918551929148,0,-1,-8,6,-2,3,-6,0
1615918551929148,-3,-5,-12,-5,-2,0,2,-1
1615918551929148,2,0,1,4,-1,-2,0,0
1615918551951114,2,1,-9,-23,0,-3,-4,1
1615918551951114,1,-1,-10,2,-1,1,-2,0
1615918551952088,-1,0,27,4,0,1,1,0
1615918551952088,-4,-1,20,17,-1,2,0,-1
1615918551974052,-3,-5,-25,-25,-2,-6,5,-2
1615918551974052,0,1,10,20,4,-1,-5,-1
1615918551974052,2,4,10,13,2,4,3,3
1615918551974052,-1,-5,-9,-11,0,-3,-4,-1
1615918551988015,-1,-1,5,-8,-2,0,-2,-1
1615918551988015,-3,-2,-5,-2,-1,1,-1,-3
1615918551995969,-1,0,-15,0,-2,-6,-1,0
1615918551995969,1,0,16,5,3,6,1,1
1615918552010953,-1,-1,-10,3,1,-1,-6,-3
1615918552010953,-2,0,-3,-9,-2,6,2,0
1615918552011952,-2,-6,-7,-14,-2,-8,4,-2
1615918552011952,-1,1,-9,14,-1,-4,1,-3
1615918552033868,1,3,9,16,-2,-2,-15,-2
1615918552033868,-2,-4,-11,-15,-1,-1,2,0
1615918552034890,1,1,-12,3,3,7,1,0
1615918552034890,-3,-6,-4,-8,-3,-5,-1,-2
1615918552047965,0,-1,1,-3,-2,-4,4,1
1615918552047965,-2,3,10,3,-3,0,-3,-2
1615918552055923,0,0,-21,-9,0,-2,0,0
1615918552055923,-1,2,3,6,1,-1,-7,-2
1615918552070882,-1,-3,-14,-8,-1,8,5,1
1615918552070882,0,0,14,-5,0,-2,3,-1
1615918552071879,-2,2,14,2,-2,-2,-1,-2
1615918552071879,1,2,9,-2,-1,3,5,0
1615918552093820,-1,-1,-1,6,-1,-2,-20,-1
1615918552093820,0,-2,-16,-12,1,-1,5,2
1615918552101800,-2,-2,9,28,-1,-2,-1,-1
1615918552101800,1,-2,-10,-17,-1,-3,1,2
1615918552109778,-4,0,1,1,-3,5,4,-5
1615918552109778,0,-1,-3,0,1,0,-3,-2
1615918552116760,0,-2,1,-16,-3,1,-3,-1
1615918552116760,-3,-6,-23,-20,-4,-13,-8,-4
1615918552131743,2,7,69,50,1,5,5,2
1615918552131743,0,0,-9,-13,-3,-3,-4,-2
1615918552131743,0,-3,-23,0,0,5,1,0
1615918552131743,-1,1,9,-12,-2,4,-1,-3
1615918552153296,-1,-1,-12,13,0,-4,9,-1
1615918552153296,-1,2,7,3,-1,3,5,-1
1615918552154294,-3,-5,-7,-18,0,-17,-21,-5
1615918552154294,1,0,-1,24,1,1,-4,0
1615918552168256,-3,-4,-13,-24,-2,2,11,0
1615918552168256,-1,-2,-7,3,0,6,-11,0
1615918552176260,0,1,6,8,2,2,5,0
1615918552176260,0,4,-2,-9,0,-7,-3,0
1615918552191604,0,2,14,-5,-2,0,-2,-2
1615918552191604,0,-1,7,21,-1,-5,2,0
1615918552192602,-1,-6,-13,-17,-3,7,2,0
1615918552192602,0,1,3,11,-1,-10,-1,1
1615918552213546,2,-2,-19,-23,0,4,7,1
1615918552213546,-2,-1,14,-1,-2,-3,-11,-2
1615918552214543,-1,1,4,13,-1,-2,-2,-1
1615918552214543,0,-2,6,0,-1,5,4,-1
1615918552228507,-1,-2,-12,8,-2,-9,-1,-1
1615918552228507,-4,-6,-13,-6,-1,0,0,-1
1615918552236485,3,8,14,-6,0,6,5,2
1615918552236485,-1,-3,-13,-4,-1,0,-1,-3
1615918552251445,2,1,2,-8,0,0,-1,3
1615918552251445,-1,-5,-11,8,-1,-4,-5,-2
1615918552252442,-5,-7,-7,7,-4,-2,-3,-5
1615918552252442,0,2,1,-11,0,5,4,1
1615918552273412,-1,-4,-7,1,-1,0,-5,-3
1615918552273412,0,0,-16,-13,-3,-2,-2,-3
1615918552274408,-3,-2,-9,-4,-3,-16,1,-3
1615918552274408,-5,-3,-3,1,-1,2,-6,-2
1615918552288372,-2,-3,-9,-11,-1,0,5,1
1615918552288372,-1,1,-5,13,2,2,1,0
1615918552296348,-1,-2,-5,-20,-3,2,-2,-2
1615918552296348,-3,0,38,26,-3,-6,-6,-4
1615918552311309,-1,-2,-20,-10,-1,0,-5,0
1615918552311309,1,1,-8,-15,-1,-3,3,2
1615918552312309,1,1,-3,8,2,5,0,1
1615918552312309,1,-2,5,-2,-3,-1,5,-1
1615918552334224,0,-1,-1,0,0,0,0,0
1615918552334224,0,0,12,-1,0,0,-11,-1
1615918552335222,-2,-1,-1,3,-1,0,4,-2
1615918552335222,-1,-1,-15,-11,1,0,-2,0
1615918552357190,-3,-1,5,7,0,2,3,-2
1615918552357190,0,-2,-6,-4,-4,-9,1,-1
1615918552358160,0,1,6,-4,1,0,1,3
1615918552358160,-3,-5,-17,-25,-1,2,-2,-1
1615918552372146,-1,4,28,40,-1,0,-9,-1
1615918552372146,-3,0,9,-10,-3,-2,3,-2
1615918552379127,-1,2,12,5,1,5,0,0
1615918552379127,2,2,8,14,0,-7,-1,0
1615918552394088,-1,-3,-17,-21,-1,6,-1,0
1615918552394088,1,-1,-1,-1,-3,-12,5,0
1615918552395061,0,-1,15,6,-1,3,-6,-4
1615918552395061,-2,-1,-1,-3,1,0,-3,-1
1615918552417003,-4,-5,-20,1,1,-2,0,-3
1615918552417003,2,2,17,16,4,7,5,5
1615918552418000,-3,-3,-21,-7,-3,0,0,-1
1615918552418000,-1,-2,-8,-5,-1,0,0,-1
1615918552430964,2,-1,3,-11,-3,-8,-4,-2
1615918552430964,0,-1,-7,9,-2,5,-2,-2
1615918552431963,0,-1,-13,-4,-1,-2,6,-2
1615918552431963,-1,-2,-14,2,-1,-1,-10,-1
1615918552453928,1,2,-1,-10,2,-2,-1,1
1615918552453928,-2,0,-5,-12,-2,0,-2,-4
1615918552454925,0,-2,5,2,1,-2,2,-1
1615918552454925,2,0,-13,0,-1,5,6,-1
1615918552476842,-1,-3,2,2,-3,-7,-20,-3
1615918552476842,-2,1,-5,-1,-1,-10,1,1
1615918552477839,-1,-2,-13,-6,-1,3,-4,0
1615918552477839,-2,0,9,10,-1,-6,4,0
1615918552491439,-1,-1,-3,-13,-1,-4,1,-2
1615918552491439,2,2,4,19,0,7,-1,-1
1615918552493446,0,-4,-13,-8,-2,-7,-6,-1
1615918552493446,0,0,-12,-15,-3,-1,-1,-1
1615918552513381,0,2,13,9,-1,1,1,0
1615918552513381,-3,-2,3,-18,-3,1,-6,-2
1615918552514353,-1,-2,-13,3,-2,-1,12,0
1615918552514353,0,0,11,9,0,1,-21,-2
1615918552537423,-1,-1,-7,3,0,-4,5,0
1615918552537423,1,3,18,-6,-2,-1,2,1
1615918552537423,3,1,0,-14,0,0,-3,1
1615918552537423,-3,-1,20,32,0,0,5,-3
1615918552551582,-3,-4,-21,-8,-3,-1,1,-1
1615918552551582,0,-3,-8,-12,3,3,-3,-2
1615918552551582,-3,3,31,31,-1,-5,1,0
1615918552551582,-1,-1,-1,-12,-1,-1,2,-1
1615918552573523,-1,-1,-1,-8,-1,6,1,-3
1615918552573523,-2,0,-4,4,-1,-6,1,-1
1615918552574520,-2,-4,-24,-38,-5,0,-6,-6
1615918552574520,-1,0,23,18,-2,-3,5,-1
1615918552597465,0,7,25,17,3,4,5,0
1615918552597465,-2,-1,-17,-26,0,-14,-14,-3
1615918552597465,1,-1,19,29,0,3,-1,0
1615918552597465,-1,-2,-23,-18,-1,2,0,1
1615918552611450,-1,-4,-18,-8,0,5,5,-1
1615918552611450,-1,-1,13,0,-2,-1,12,2
1615918552612445,-4,-2,-2,-4,-1,-3,-17,-2
1615918552612445,3,1,11,-1,1,0,3,1
1615918552633584,-1,0,-1,9,-4,-8,-4,-1
1615918552633584,-4,-4,-6,4,-2,7,9,-3
1615918552634580,0,-1,-1,-10,-1,-6,-8,-2
1615918552634580,-2,-4,-37,-5,-3,1,-1,-3
1615918552656545,0,1,-1,-5,-1,-1,0,0
1615918552656545,-1,-2,-11,-11,0,0,-5,0
1615918552657541,0,0,13,10,1,1,10,0
1615918552657541,-4,-7,-27,-4,-1,0,1,-1
1615918552671751,3,8,18,21,4,6,-2,3
1615918552671751,-2,-6,-5,-6,-2,-8,0,-1
1615918552672516,-1,4,16,11,-1,6,1,0
1615918552672516,-1,1,0,-12,-2,-3,-1,-2
1615918552693561,-1,-4,-5,-9,-1,-4,1,-2
1615918552693561,-1,-2,-4,-9,0,8,0,0
1615918552694559,0,0,26,27,-1,-8,-4,0
1615918552694559,0,1,6,-8,-4,-5,-4,1
1615918552716657,-2,-1,1,-2,-2,4,4,-3
1615918552716657,0,-2,-2,3,0,0,11,-2
1615918552717655,-2,-3,-12,-8,-2,-6,-8,-1
1615918552717655,-2,-5,-17,-18,-1,4,1,-2
1615918552731641,3,3,40,19,-1,-8,-7,-1
1615918552731641,1,-1,-5,8,-2,-3,-4,0
1615918552731641,-2,-1,1,-5,0,5,10,-1
1615918552731641,-2,1,17,18,0,-1,-3,-3
1615918552753558,0,0,-13,-16,0,0,-2,0
1615918552753558,-4,-8,-9,4,-1,-1,-5,-3
1615918552754555,2,4,7,-11,0,-2,3,2
1615918552754555,-2,-2,6,-4,-1,4,-5,-2
1615918552776522,0,-5,-27,-16,-1,-1,0,-1
1615918552776522,-3,0,23,27,-2,-4,5,0
1615918552777493,-2,-5,-21,-14,-2,1,-10,-3
1615918552777493,2,-2,-21,-14,0,-1,3,0
1615918552791456,-1,1,19,12,-2,-2,0,-1
1615918552791456,2,3,3,2,1,0,-4,0
1615918552793451,0,-3,-10,-11,0,-1,6,-1
1615918552793451,-2,-3,2,-1,1,-4,-2,-1
1615918552813398,-5,-5,-21,-14,-1,0,-5,-2
1615918552813398,0,5,6,11,1,0,4,4
1615918552814396,1,2,10,1,0,2,-2,0
1615918552814396,-1,-2,-14,-7,0,-4,6,0
1615918552837358,-5,-4,13,-1,-2,-12,-16,-3
1615918552837358,1,2,11,18,0,8,-4,-1
1615918552837358,-2,-6,-26,-6,-1,0,3,-2
1615918552837358,0,3,3,3,2,4,2,0
1615918552851297,2,1,11,8,-1,-3,2,0
1615918552851297,-2,1,-15,-16,-1,-3,-3,0
1615918552852294,1,-2,-11,-6,-2,1,-4,0
1615918552852294,-1,-2,9,-4,-1,1,4,1
1615918552874235,1,4,13,14,-1,1,-7,0
1615918552874235,0,-5,-10,-13,-3,-4,-2,-2
1615918552874235,-2,0,-10,-7,-1,0,5,1
1615918552874235,-1,2,-1,-6,0,-1,-1,0
1615918552897174,0,0,31,3,-2,0,7,0
1615918552897174,-1,0,1,2,1,-2,-4,-2
1615918552898171,-1,0,9,4,-3,4,-7,-2
1615918552898171,-2,-3,-2,2,-5,-2,2,-2
1615918552911136,0,-1,4,2,-2,-3,2,-1
1615918552911136,-1,-1,-3,1,-2,0,-4,-3
1615918552919139,0,-1,5,-5,-1,3,1,0
1615918552919139,-2,0,-2,6,2,-7,-4,0
1615918552934076,0,-3,-11,-10,-2,1,3,0
1615918552934076,1,0,1,-4,-2,1,-2,-1
1615918552935073,-2,-2,-11,-5,-1,-3,2,0
1615918552935073,3,1,2,6,0,2,-1,1
1615918552957015,0,2,17,5,-1,-4,2,-1
1615918552957015,-6,-5,-22,-6,-1,-7,-6,-4
1615918552958012,1,1,-8,-12,2,3,1,0
1615918552958012,-1,-4,1,9,-4,1,0,1
1615918552970977,-4,-5,-26,-16,-2,0,5,-1
1615918552970977,1,2,15,20,3,2,-4,-1
1615918552978955,0,1,4,-4,0,-2,0,1
1615918552978955,-3,-1,3,-1,-1,1,-7,-6
1615918552993915,-3,-4,-32,-12,-2,-7,-1,2
1615918552993915,-1,1,24,10,0,3,3,0
1615918552994912,-2,-1,-12,0,-1,1,-3,-2
1615918552994912,0,2,2,-7,0,-5,-1,1
1615918553024832,-2,-2,4,10,-1,0,-5,-4
1615918553024832,-1,-2,-26,-10,-3,-1,5,-2
1615918553024832,-3,-3,-10,-8,-2,0,-17,-4
1615918553024832,-2,1,19,19,0,-1,-3,-1
1615918553030816,-1,-7,-30,-22,0,2,3,-2
1615918553030816,-2,2,31,20,0,-4,3,-1
1615918553038795,1,-3,-13,-7,-1,-1,2,0
1615918553038795,2,4,20,4,2,1,1,-1
1615918553053755,-1,-2,-13,-14,-1,3,-4,0
1615918553053755,-2,0,13,14,0,1,3,-1
1615918553054753,1,4,17,11,-2,-11,-4,-1
1615918553054753,0,1,-8,-8,-2,1,1,-1
1615918553076694,-1,-1,1,17,0,5,4,-1
1615918553076694,0,-3,-12,-24,-2,-1,-6,-2
1615918553077691,-3,-4,-5,4,-3,-5,1,-5
1615918553077691,0,0,0,17,-2,-2,0,0
1615918553090657,-1,0,-5,-3,0,2,4,0
1615918553090657,-2,-5,-35,-12,-2,-3,-17,-4
1615918553098635,-1,2,14,5,-3,-5,5,0
1615918553098635,-1,-2,10,-9,-1,1,-1,-2
1615918553113595,-2,-2,-14,1,0,-1,2,0
1615918553113595,0,-2,6,-6,-1,-1,1,-1
1615918553114592,-2,-4,-18,-11,-1,-2,2,-2
1615918553114592,2,4,16,9,-2,1,2,1
1615918553136534,-2,-2,-17,4,0,1,-5,-1
1615918553136534,-3,-1,-5,1,0,-1,1,-3
1615918553137531,0,-5,-26,-17,-2,-1,2,1
1615918553137531,1,-2,0,6,0,0,-12,-1
1615918553150497,2,3,11,-1,-2,-6,0,1
1615918553150497,-1,-4,-25,-25,-4,-1,-1,-3
1615918553158475,-2,1,29,14,0,5,3,0
1615918553158475,-1,-6,-24,-9,1,-2,1,0
1615918553173435,0,2,14,-13,-2,-6,-7,-2
1615918553173435,0,3,-9,25,4,2,0,-1
1615918553174432,-3,-1,-6,-8,-6,-7,-2,-1
1615918553174432,-1,0,-3,1,0,2,-2,-1
1615918553196374,-3,-5,-14,-32,-2,-1,-4,-3
1615918553196374,3,5,27,23,2,2,8,8
1615918553197372,-4,-3,-7,7,-1,-1,-5,-4
1615918553197372,-2,-1,8,-7,-3,-6,-4,-3
1615918553219312,1,-2,-10,2,-2,4,9,0
1615918553219312,-3,1,24,-6,-1,-6,-23,-3
1615918553220310,0,-4,-4,0,1,3,1,0
1615918553220310,-1,-1,-3,-12,-2,-4,0,0
1615918553234273,-3,0,5,12,-1,0,3,-3
1615918553234273,-1,-3,-2,-11,-3,-1,5,-1
1615918553234273,1,3,9,9,3,5,-3,-1
1615918553234273,-6,-2,-17,-13,-3,-11,-2,-3
1615918553256214,1,0,3,3,1,3,-2,0
1615918553256214,1,-2,-8,-9,-4,0,4,2
1615918553257211,-6,0,-10,-33,-1,-3,-4,-3
1615918553257211,-2,-2,15,46,0,7,1,-2
1615918553279763,2,1,7,-11,3,-4,-3,2
1615918553279763,0,-1,-4,-2,0,0,6,2
1615918553280737,2,0,2,-3,-1,-1,4,-1
1615918553280737,-1,-1,-9,-25,0,4,-22,-4
1615918553293725,-3,-2,6,14,-3,-4,-2,-2
1615918553293725,0,2,8,-1,-1,-4,-1,0
1615918553294700,-2,-3,0,9,-3,-3,1,-1
1615918553294700,-1,-2,-4,-15,0,1,8,2
1615918553316642,-2,1,2,14,-1,0,-8,-2
1615918553316642,-2,-1,-3,-11,0,-2,8,0
1615918553316642,-2,-4,-2,0,-4,-4,-14,-2
1615918553316642,2,5,16,12,0,0,6,2
1615918553339583,0,1,24,8,0,-1,-1,-1
1615918553339583,0,-4,-15,-1,0,-1,-1,0
1615918553340577,-2,0,0,9,0,2,7,-1
1615918553340577,0,-1,-2,-14,1,0,-11,-2
1615918553354565,-1,-3,-24,-9,0,3,2,-1
1615918553354565,-1,1,-3,-8,-1,-4,1,1
1615918553355537,1,-1,3,9,1,-2,-1,0
1615918553355537,-2,-1,-16,-12,-4,0,5,1
1615918553376481,-2,-3,2,1,-3,-4,-1,-1
1615918553376481,-2,-4,-8,-1,-2,5,-6,-5
1615918553377478,0,-3,-27,-5,1,-6,0,0
1615918553377478,0,3,30,8,1,3,5,-2
1615918553399420,-2,-2,-13,0,0,0,-7,-3
1615918553399420,-2,1,-6,-12,-2,0,0,-1
1615918553400416,-2,-6,-1,-6,-3,-1,-4,-3
1615918553400416,1,0,-16,1,1,-3,1,1
1615918553413381,-3,0,13,-6,-3,-1,-3,-1
1615918553413381,0,1,30,8,0,-2,2,1
1615918553414379,1,2,8,5,3,4,8,0
1615918553414379,-3,-6,-13,-8,-4,-9,-23,-3
1615918553436344,-2,-1,8,1,-3,1,7,-1
1615918553436344,1,-2,-4,-17,0,7,5,1
1615918553437317,0,1,26,23,-1,-6,-3,-1
1615918553437317,2,-1,5,23,2,0,6,1
1615918553459284,-3,-1,-17,-21,-1,-6,-7,-1
1615918553459284,0,-1,14,9,-2,1,-2,-3
1615918553460256,-1,-3,-13,-19,-2,-4,1,0
1615918553460256,0,-3,20,21,0,4,4,1
1615918553474243,-1,1,0,-1,2,1,-3,-2
1615918553474243,-1,-1,-19,-1,-2,3,4,-1
1615918553474243,0,1,3,-12,-1,2,-4,1
1615918553474243,-4,-5,-13,-5,0,-8,-3,-3
1615918553496186,1,0,-14,-15,1,0,5,-2
1615918553496186,-1,-3,2,15,-1,1,2,-1
1615918553497158,-2,1,13,-15,-2,3,-13,-1
1615918553497158,-2,-1,15,20,0,-7,5,-1
1615918553519123,-1,-4,-26,-18,0,2,-2,-1
1615918553519123,1,1,9,17,0,-1,9,-1
1615918553520096,1,0,-16,-5,2,-1,-8,0
1615918553520096,-2,1,2,-13,-2,0,2,0
1615918553534084,-1,-3,4,5,-1,-4,-3,-1
1615918553534084,0,-1,-12,-11,-2,-2,-6,1
1615918553535073,1,-3,3,10,-1,2,4,-1
1615918553535073,1,1,-4,-11,-3,1,-2,-2
1615918553556026,-2,-2,-5,12,-3,0,2,0
1615918553556026,1,-1,-3,-8,0,-10,-7,-2
1615918553556998,0,4,16,3,-2,3,1,-1
1615918553556998,-3,-4,-22,-14,0,4,10,0
1615918553579689,-1,3,31,33,2,3,-11,0
1615918553579689,-3,-5,-33,-8,1,-1,-3,-2
1615918553580686,2,7,41,20,-1,-5,4,1
1615918553580686,0,-4,-18,-21,-4,1,-1,-1
1615918553593649,0,-1,0,15,0,-1,5,0
1615918553593649,2,0,4,2,1,5,-1,2
1615918553594646,-4,-3,10,4,-1,-6,-6,-2
1615918553594646,0,1,-21,-18,0,-1,4,-1
1615918553616589,2,3,15,12,-1,2,2,1
1615918553616589,-4,-2,-10,-2,-3,-5,-6,-3
1615918553617585,-2,0,-9,-13,0,1,2,-2
1615918553617585,-2,-1,19,12,-2,0,-4,-1
1615918553639526,2,-2,-17,-31,-1,-1,-1,1
1615918553639526,-4,-3,12,23,-3,-5,2,-4
1615918553640524,1,4,14,22,2,4,2,1
1615918553640524,-1,-4,-17,-14,-2,-3,-1,-1
1615918553653489,-4,-2,-11,-13,-3,-5,-14,-6
1615918553653489,0,3,21,6,2,0,3,2
1615918553654486,1,0,-18,-9,-2,5,2,-1
1615918553654486,1,-1,-1,1,0,-10,2,1
1615918553676428,-4,-2,1,12,-1,-1,1,-1
1615918553676428,-1,0,-4,-16,0,0,-6,-4
1615918553677425,-1,-1,-6,3,-1,3,2,1
1615918553677425,1,0,-12,-9,-1,-5,-3,0
1615918553699367,0,-2,7,-4,1,2,2,0
1615918553699367,-3,-2,5,24,-1,-2,-6,-1
1615918553700364,-1,0,-11,0,0,-2,7,2
1615918553700364,-2,-4,-8,-8,0,1,-7,-1
1615918553714264,1,-3,-1,-10,-2,0,10,2
1615918553714264,1,0,-21,-31,-2,-5,-12,-1
1615918553714264,-2,-2,23,10,-2,-3,-2,-4
1615918553714264,-1,1,15,18,-1,6,1,-1
1615918553736519,-1,0,-6,-14,-2,-5,0,-2
1615918553736519,-2,-3,-2,1,-1,4,0,-1
1615918553737490,-2,-6,-28,-12,0,0,2,-3
1615918553737490,0,3,6,-1,-1,-7,-4,-1
1615918553759555,0,0,12,5,-4,1,-1,2
1615918553759555,-1,-1,5,9,2,-5,4,0
1615918553760550,-3,-7,-25,-44,-3,-4,-4,-2
1615918553760550,1,3,35,56,3,7,2,-1
1615918553773747,2,0,-4,-3,-1,-5,-2,0
1615918553773747,-4,-2,-19,-12,-5,-2,-1,-4
1615918553775218,-1,-2,12,3,0,-1,-3,1
1615918553775218,-3,-2,-2,-20,-3,-4,1,-3
1615918553796067,0,-1,2,23,1,0,1,1
1615918553796067,0,2,2,-11,-2,2,4,0
1615918553797039,0,-2,-11,14,-2,-5,-1,0
1615918553797039,-1,0,-13,-14,-3,-4,-4,-1
1615918553819738,-4,-4,-14,-6,1,4,0,-2
1615918553819738,0,-2,11,2,-1,0,0,-2
1615918553820777,0,1,-8,4,0,1,-2,-2
1615918553820777,0,0,3,-4,0,-2,0,1
1615918553834216,-1,-4,-12,-12,-3,-4,-4,-1
1615918553834216,1,0,9,-4,-1,-5,-2,2
1615918553834216,-2,-1,-3,7,-1,-2,0,-1
1615918553834216,-3,-5,-18,-8,-3,-1,6,-1
1615918553856235,2,1,-13,-21,-1,-1,-16,-4
1615918553856235,-1,-3,1,6,1,-5,-1,-1
1615918553857212,3,2,26,20,0,0,4,1
1615918553857212,1,2,-11,-7,0,3,5,0
1615918553880089,-4,-5,-2,9,1,-4,2,-3
1615918553880089,0,-3,-10,-10,-1,3,-2,-1
1615918553880089,-4,-1,-9,-9,0,-1,-2,-3
1615918553880089,0,-2,7,6,0,7,-2,0
1615918553893680,-1,0,10,0,-2,-6,-3,-1
1615918553893680,1,0,4,6,-1,1,1,0
1615918553901402,-1,-3,-6,-6,0,-1,1,0
1615918553901402,0,0,-8,-11,0,0,-3,0
1615918553916726,1,1,11,8,0,3,3,2
1615918553916726,-1,0,8,6,-2,2,6,0
1615918553916726,-2,-3,-12,0,-2,-2,9,-1
1615918553916726,-2,-7,-15,-26,1,-2,-30,-6
1615918553939731,-1,3,-4,19,1,-7,4,0
1615918553939731,2,0,-9,-11,0,2,1,1
1615918553940703,-2,0,5,4,-1,-3,0,-2
1615918553940703,-2,0,-10,-13,-4,-2,6,0
1615918553953666,-2,0,5,13,-3,1,0,-2
1615918553953666,0,-2,-9,-13,-1,-2,-4,-3
1615918553961669,1,2,12,5,1,-6,-2,-1
1615918553961669,0,0,-4,-2,-2,3,4,3
1615918553976041,-1,-1,15,5,2,3,-2,-1
1615918553976041,-2,-1,-9,-9,-2,-7,-2,-2
1615918553977048,0,-1,-11,-7,-3,3,-7,2
1615918553977048,0,1,-1,8,0,0,1,-2
1615918553999707,1,-1,14,4,-1,2,11,2
1615918553999707,-2,-1,0,-16,-2,1,-8,-1
1615918554001702,-1,-3,-2,12,0,-2,-8,-4
1615918554001702,-2,-3,-8,7,1,4,6,1
1615918554013690,-2,2,1,-19,1,3,0,0
1615918554013690,-4,-3,1,10,-3,-6,-5,-1
1615918554021647,2,1,-3,-18,-2,-7,0,-1
1615918554021647,-3,-3,-4,26,-1,0,0,-4
1615918554044338,2,-2,-1,-7,0,1,1,2
1615918554044338,-2,0,2,-2,2,3,1,0
1615918554045236,2,-2,1,-1,0,-2,1,0
1615918554045236,1,1,24,26,0,0,6,0
1615918554060101,-6,-7,-25,-25,-4,-5,-19,-4
1615918554060101,-1,0,7,13,-1,1,2,0
1615918554060101,-1,1,20,5,-2,-2,-3,0
1615918554060101,0,0,3,-21,1,-3,4,0
1615918554072818,-1,-5,-8,10,1,1,1,-3
1615918554072818,3,-1,-9,-11,1,2,0,1
1615918554081882,-2,0,16,12,-2,-1,-3,-1
1615918554081882,-1,-2,-1,0,-3,-4,-6,-2
1615918554095975,2,3,12,1,-1,-3,-1,1
1615918554095975,-1,-1,-11,-9,0,0,-1,-4
1615918554096973,0,-2,-22,-9,-3,-1,1,0
1615918554096973,0,-1,22,11,2,1,-1,2
1615918554119567,-1,0,-9,3,1,-1,4,1
1615918554119567,-1,-1,5,-2,-3,1,-9,-3
1615918554120876,-3,-3,-12,-5,-1,4,1,-2
1615918554120876,2,5,12,-15,-1,3,6,1
1615918554133500,1,-2,0,5,-3,-9,-20,-1
1615918554133500,-1,-3,3,1,-2,0,2,-2
1615918554141616,-2,-3,-16,-12,-3,-4,-4,-2
1615918554141616,-3,-4,-3,-4,-3,1,-2,-2
1615918554156773,-2,0,5,19,0,5,7,-1
1615918554156773,0,-1,-4,-5,0,-5,1,1
1615918554157746,-3,-1,-4,-1,0,1,0,-1
1615918554157746,-3,-2,-2,-2,-3,-8,-4,-4
1615918554180015,1,-2,-10,-27,-2,2,3,-1
1615918554180015,0,1,1,21,0,-5,-1,1
1615918554180015,-2,1,34,26,1,2,2,-1
1615918554180015,-1,-2,-13,-19,-2,3,5,0
1615918554192791,-2,-1,-13,-5,-2,-9,-20,-6
1615918554192791,-1,-1,-2,-17,-2,1,4,2
1615918554201769,1,-2,16,3,-2,-4,1,0
1615918554201769,-4,-4,-16,4,-1,-3,-4,-1
1615918554216487,0,2,11,-6,-1,0,4,0
1615918554216487,-1,-3,-3,8,-1,-1,1,-1
1615918554217483,0,-1,-17,-17,-2,-1,3,0
1615918554217483,-2,-2,8,8,-2,-1,-14,-4
1615918554239766,-3,-5,-13,-6,-5,0,7,-3
1615918554239766,0,-2,-5,9,0,-10,-1,-1
1615918554240773,1,3,6,-3,-1,-2,-1,-1
1615918554240773,-1,-2,-33,-29,-3,-1,-1,-2
1615918554262174,0,2,20,22,2,3,3,1
1615918554262174,-4,-2,5,2,-3,1,-2,-5
1615918554263085,-1,-3,-9,-10,0,2,-3,-1
1615918554263085,1,0,5,3,-1,-3,5,2
1615918554276513,0,2,14,11,-1,2,6,1
1615918554276513,-1,-1,7,-7,-1,-7,-16,-2
1615918554277537,-2,-1,-31,-16,-3,0,-1,-1
1615918554277537,2,0,1,23,1,4,-1,-1
1615918554299397,-2,0,0,-11,0,-1,7,-1
1615918554299397,1,-2,-10,1,-1,2,4,1
1615918554300395,-3,-2,-6,-8,-4,-5,-8,-3
1615918554300395,-1,0,-4,-3,0,0,-1,-3
1615918554322429,1,-2,16,5,0,2,-1,0
1615918554322429,0,-3,2,11,-3,-6,-2,2
1615918554322429,0,-5,-11,-8,3,1,-2,0
1615918554322429,-2,2,25,-7,0,-2,10,0
1615918554336808,0,-4,4,-8,-1,1,-16,-3
1615918554336808,-4,0,-7,-2,1,-1,2,-2
1615918554336808,-1,-2,9,32,0,1,8,2
1615918554336808,1,-1,-13,-15,-2,-1,-8,0
1615918554359825,0,-1,-1,13,1,-7,1,-2
1615918554359825,-1,2,6,-10,-1,1,-3,-3
1615918554360927,-1,-2,-15,-11,-3,-4,3,-1
1615918554360927,-1,2,26,20,-1,0,-1,0
1615918554381952,0,0,-12,-8,1,1,-1,-1
1615918554381952,-1,-3,-13,-9,-1,2,2,-1
1615918554382959,0,-1,10,7,1,0,-1,1
1615918554382959,-1,-7,-3,5,-2,-10,-3,-3
1615918554396776,0,-2,-20,-11,-5,-6,1,1
1615918554396776,-2,-1,0,-1,1,5,4,1
1615918554396776,-1,1,0,1,1,4,-6,-1
1615918554396776,-1,2,10,0,-1,1,5,0
1615918554419762,0,-4,-5,-14,1,1,-11,-2
1615918554419762,-1,4,11,-4,1,2,5,-1
1615918554420760,-1,-3,12,19,-1,-4,0,-3
1615918554420760,-3,-4,-17,-16,-3,-5,-4,-2
1615918554442639,0,4,10,22,0,-1,8,2
1615918554442639,-1,-2,-12,-14,0,3,-3,-1
1615918554442639,4,3,15,-1,2,3,0,-2
1615918554442639,-1,-1,-3,4,1,-2,1,-1
1615918554456618,-2,-3,-6,-16,-3,-3,-3,-2
1615918554456618,0,-1,1,11,-1,-1,-2,-3
1615918554463599,0,0,4,2,-2,-2,-1,-2
1615918554463599,1,-1,1,2,-1,-1,-2,3
1615918554479988,-2,-1,-9,-12,1,1,0,-2
1615918554479988,0,-2,-17,3,-1,0,1,0
1615918554479988,2,5,23,3,1,-1,-3,2
1615918554479988,-3,-5,-9,0,-1,1,-6,-4
1615918554509363,-3,4,0,-6,-3,2,5,-1
1615918554509363,0,-4,-9,-7,-2,-9,-3,2
1615918554510360,0,2,21,11,0,-2,-3,-2
1615918554510360,-1,-3,-20,-8,-1,5,4,-1
1615918554516321,0,0,12,5,0,-1,-9,-1
1615918554516321,-2,-2,-3,-9,-1,2,1,-2
1615918554517319,-2,-3,-14,-5,-1,0,0,-1
1615918554517319,3,-1,2,4,0,0,1,5
1615918554538715,-2,-5,-14,-4,-2,-1,4,0
1615918554538715,-2,1,6,8,-3,-4,-3,-1
1615918554539715,0,-2,-15,-21,-2,0,-2,1
1615918554539715,-2,-2,27,34,-1,-2,9,-4
1615918554561734,0,2,-5,-9,-1,1,-12,-1
1615918554561734,0,-1,4,4,1,0,1,2
1615918554562735,-5,-5,-14,-13,-4,-1,2,-2
1615918554562735,-2,2,-1,-4,-1,-6,-3,-2
1615918554576409,0,-3,-14,-16,-2,-2,4,1
1615918554576409,-2,-1,26,31,-3,-1,-4,-3
1615918554577386,0,-1,-14,-18,-1,0,6,0
1615918554577386,-1,2,18,2,-1,-7,-25,-3
1615918554599701,-4,-5,5,-7,0,-2,2,-4
1615918554599701,1,2,-16,-5,-2,-4,0,0
1615918554599701,-2,-4,-13,1,1,0,4,1
1615918554599701,-1,0,-8,-6,2,5,0,1
1615918554622639,-1,-1,34,19,0,-8,1,-1
1615918554622639,-3,2,-12,-14,0,6,0,-5
1615918554622639,0,0,-3,-13,-1,-2,-4,-3
1615918554622639,-4,-2,11,20,0,-7,-3,-5
1615918554636680,0,2,13,2,-1,6,4,0
1615918554636680,-1,-6,1,4,-1,0,1,0
1615918554637679,1,4,8,-1,1,3,4,0
1615918554637679,0,0,-20,-13,-2,0,-5,1
1615918554658644,-3,-5,-25,-1,-3,-4,4,-3
1615918554658644,1,1,22,11,1,1,-16,-3
1615918554659635,-3,-4,-12,1,-4,-6,2,-1
1615918554659635,2,-3,-8,-17,-3,-4,4,-1
1615918554682609,-1,-1,-6,9,1,5,6,0
1615918554682609,-1,-2,-5,-17,-3,-10,3,-1
1615918554682609,0,-3,-16,4,-2,1,-23,-4
1615918554682609,-1,-2,-6,-20,-1,-2,5,-1
1615918554696577,-1,-1,-15,33,0,0,-3,0
1615918554696577,2,2,-4,-15,-3,3,3,0
1615918554697575,-2,-4,-2,-5,1,-6,0,0
1615918554697575,-1,4,11,2,2,6,11,0
1615918554719407,-2,0,-2,-9,-3,-4,-15,-2
1615918554719407,-1,-2,-7,11,-3,-3,4,0
1615918554719407,-1,0,6,4,1,1,2,-1
1615918554719407,0,-4,-20,-9,-2,4,-1,-1
1615918554742504,-1,1,-1,-10,-1,-6,2,0
1615918554742504,1,0,-1,2,-3,-3,-3,-1
1615918554742504,-2,-2,0,1,-1,2,-1,-1
1615918554742504,-1,-1,-5,-10,-1,-3,-1,-1
1615918554756422,5,0,6,4,1,2,4,3
1615918554756422,-3,-3,4,-3,-2,0,-2,-1
1615918554757420,1,2,13,-19,-3,0,0,-2
1615918554757420,-1,0,10,40,1,2,-2,-2
1615918554779400,-2,-4,-9,-13,-1,-3,-2,-1
1615918554779400,1,-3,-14,-1,0,1,1,0
1615918554779400,1,5,7,9,1,4,2,2
1615918554779400,-1,-1,-12,-10,0,-1,-1,1
1615918554802025,-2,-2,-7,6,-1,-2,-2,-2
1615918554802025,0,-1,6,-13,-3,1,1,1
1615918554803022,-2,-4,-11,1,-1,-1,-2,-1
1615918554803022,0,-3,-7,-1,-4,-4,-2,0
1615918554824955,0,-1,2,-2,2,2,1,0
1615918554824955,-2,-2,2,0,0,1,-1,-2
1615918554824955,-1,-1,-2,2,0,-4,-3,-3
1615918554824955,1,1,6,-2,-4,2,1,0
1615918554839094,-2,-2,0,-5,-3,-3,-1,-2
1615918554839094,0,-3,7,4,2,-1,0,2
1615918554840093,0,-1,-2,6,1,0,1,0
1615918554840093,0,1,4,-1,-2,2,-3,1
