timestamp,emg1,emg2,emg3,emg4,emg5,emg6,emg7,emg8
1615918525542870,2,2,7,-4,6,2,-8,-2
1615918525542870,6,8,-17,-12,3,9,9,1
1615918525543868,-5,-6,22,17,-10,-3,5,1
1615918525543868,-1,-7,-16,-11,-1,4,-4,-4
1615918525566806,-1,0,-7,-4,2,-6,2,-1
1615918525566806,-3,-5,-10,0,-5,0,-31,-6
1615918525567804,-1,-3,-8,-10,-4,1,-3,-3
1615918525567804,7,-1,-3,-7,-10,-10,5,5
1615918525579772,-3,5,-5,5,-3,0,-3,-1
1615918525579772,4,3,23,4,9,22,21,9
1615918525580770,-4,-6,-6,3,5,3,-8,-5
1615918525580770,-3,-5,19,11,3,1,-6,-3
1615918525602766,-1,-3,-28,-19,-11,-2,1,-1
1615918525602766,-4,-2,15,15,3,-2,1,-4
1615918525603763,5,2,-1,-10,7,5,0,5
1615918525603763,-5,-4,-28,-17,1,0,6,-4
1615918525625704,0,-5,33,28,-3,-17,-22,-2
1615918525625704,1,5,9,-3,-6,1,3,1
1615918525626702,-4,-5,-14,-5,-4,-3,-2,-5
1615918525626702,6,15,0,-4,-1,-1,-2,4
1615918525640665,2,6,36,14,3,6,8,4
1615918525640665,1,-3,-22,-8,-2,-8,1,2
1615918525640665,-4,-3,-11,-6,-3,-10,-4,-5
1615918525640665,-2,-1,18,2,-6,0,-1,0
1615918525662605,-5,-11,-12,-4,1,5,1,-4
1615918525662605,1,2,-1,5,12,2,-3,1
1615918525663603,2,5,1,-9,-6,4,10,3
1615918525663603,-4,-1,-4,9,1,5,-6,-2
1615918525676568,3,-4,-3,-16,4,2,7,1
1615918525676568,-6,-6,16,9,-10,-6,-7,-5
1615918525685544,4,9,-16,-5,3,-3,-4,0
1615918525685544,1,4,5,14,2,3,1,1
1615918525700504,4,3,0,-6,-1,1,4,3
1615918525700504,0,-1,-15,-10,-3,4,4,-2
1615918525701502,-3,0,12,6,-4,-8,-10,-1
1615918525701502,1,-4,-7,-11,-3,-1,4,0
1615918525722446,-1,3,-2,2,0,-1,-3,1
1615918525722446,-1,-4,-9,0,-4,-5,-7,-3
1615918525723444,-2,-2,-3,8,-2,1,-3,-1
1615918525723444,-3,-2,7,-1,3,-1,-1,-5
1615918525746382,-6,-5,-17,-9,-3,-8,-28,-7
1615918525746382,-2,4,-1,-3,-9,-10,-1,0
1615918525746382,5,6,3,1,2,2,13,5
1615918525746382,-4,-7,6,5,-6,-4,-7,-5
1615918525760370,4,-1,-21,-10,4,-1,5,3
1615918525760370,-4,-10,-6,7,3,1,5,-2
1615918525761342,2,6,23,1,-11,8,-7,-3
1615918525761342,2,-2,-7,0,8,2,5,3
1615918525782285,0,-9,-42,-22,0,-5,3,0
1615918525782285,4,2,16,12,-2,3,4,-1
1615918525783283,3,3,2,-1,-8,-12,-7,0
1615918525783283,-1,1,12,3,19,9,-9,-3
1615918525806222,-1,2,16,6,8,-6,3,-4
1615918525806222,-2,-8,-38,-20,-31,1,-29,-6
1615918525806222,3,-1,-13,-4,14,8,-1,2
1615918525806222,0,7,10,5,-11,-9,0,-1
1615918525820211,0,-3,-3,0,0,1,2,2
1615918525820211,1,12,-3,-4,-3,7,13,1
1615918525821182,-3,-7,-7,-4,5,-3,-3,-4
1615918525821182,-10,-20,-15,-13,-7,-14,-11,-8
1615918525843123,1,5,32,21,-2,-3,6,2
1615918525843123,-2,-11,-33,-17,-1,-2,3,0
1615918525843123,2,8,63,21,1,-1,1,1
1615918525843123,0,2,-26,-9,11,3,15,2
1615918525866087,-5,-8,3,1,-7,-2,-33,-6
1615918525866087,-4,-8,-17,-14,2,-9,-5,-2
1615918525867060,-4,-6,-9,-3,-1,-6,-3,-3
1615918525867060,-5,-5,-21,-8,-12,-3,-2,-3
1615918525880025,2,-5,30,20,7,6,4,-1
1615918525880025,3,13,26,9,20,4,0,-2
1615918525881023,-4,-11,-32,-13,-4,7,5,2
1615918525881023,0,2,9,1,-7,-7,-3,-4
1615918525902989,4,1,-40,-19,-1,6,10,5
1615918525902989,7,16,58,29,5,-6,8,7
1615918525903985,-11,-12,-44,-16,-20,-8,-45,-13
1615918525903985,3,4,52,22,8,-3,5,1
1615918525925902,-2,-3,-46,-26,-3,-1,5,-3
1615918525925902,-4,-6,3,4,-2,3,5,-1
1615918525926900,1,2,-1,-4,0,2,12,-1
1615918525926900,-4,-7,-16,-7,-8,5,-7,-2
1615918525948898,-7,5,16,2,3,3,-6,-5
1615918525948898,-1,-4,-15,-5,6,4,9,-1
1615918525948898,4,5,30,21,-1,3,7,3
1615918525948898,3,2,-16,-7,-2,3,-10,-3
1615918525970815,-2,6,16,8,9,8,9,-3
1615918525970815,-2,0,-25,-17,-5,-5,-1,3
1615918525971812,-5,-12,-7,-8,9,-1,17,0
1615918525971812,5,1,-10,-4,-3,2,-21,3
1615918525985799,-1,5,32,21,-2,-14,8,-1
1615918525985799,-2,-6,-2,-1,-5,-6,0,1
1615918525986772,3,1,-7,-1,3,-3,-1,1
1615918525986772,-3,4,6,0,-5,-3,5,1
1615918526000735,-5,-4,-21,-14,-9,-3,-9,-6
1615918526000735,-2,-7,-18,-1,6,-10,-6,-1
1615918526000735,-3,-1,3,5,-4,0,5,-1
1615918526000735,-9,-7,-1,-2,-5,-6,0,-5
1615918526022677,-1,-5,-11,0,2,-10,-1,2
1615918526022677,-3,3,10,-3,-1,2,-1,-4
1615918526023674,2,1,-17,-3,-2,4,-6,-1
1615918526023674,-9,-1,10,2,14,3,-4,-7
1615918526045615,4,3,-11,-4,-6,-6,7,5
1615918526045615,-1,-1,9,8,4,2,6,-3
1615918526046612,-2,0,-16,-8,4,3,4,0
1615918526046612,2,0,-4,3,-16,1,-5,0
1615918526060751,-5,-11,-15,-7,-6,0,-3,-5
1615918526060751,-2,-4,-13,-10,4,3,2,0
1615918526060751,0,-1,8,4,-13,-12,-4,2
1615918526060751,5,-1,-7,-2,4,4,14,4
1615918526082493,1,5,-9,-6,-7,-6,-1,1
1615918526082493,-2,-2,26,8,8,-7,-9,-4
1615918526083490,-2,0,-14,-10,-12,-6,-5,-5
1615918526083490,1,2,7,5,3,0,-1,-1
1615918526105507,6,7,32,-2,4,10,15,5
1615918526105507,-1,-4,-3,8,-14,16,-1,3
1615918526106504,-1,5,-4,-7,4,-21,0,-1
1615918526106504,-3,-3,4,0,-1,-8,4,1
1615918526120589,0,5,16,8,9,13,-4,-3
1615918526120589,0,-7,-23,-17,-12,4,-2,-5
1615918526120589,-5,-4,16,0,1,10,2,-6
1615918526120589,3,7,26,8,8,-5,3,4
1615918526142556,-4,-17,-31,-16,-5,1,-9,-2
1615918526142556,-1,5,27,15,6,2,-1,0
1615918526143527,-3,-3,-11,-6,6,9,-4,-3
1615918526143527,3,-3,7,1,-3,-3,3,3
1615918526165492,4,13,0,3,2,1,13,2
1615918526165492,-2,-8,6,-10,-3,-6,-28,-1
1615918526166471,-2,0,-1,4,-8,-7,-6,-3
1615918526166471,4,5,16,6,2,5,8,5
1615918526180456,-3,-12,-6,5,1,-8,-5,-2
1615918526180456,1,3,-7,-6,-6,-11,1,-1
1615918526181450,1,-2,-12,-5,3,1,-4,0
1615918526181450,-4,-6,-16,-7,4,2,-8,-8
1615918526202396,-1,1,6,-1,-4,10,-4,0
1615918526202396,-3,-4,-32,-24,-6,1,2,0
1615918526203367,-1,1,45,32,4,-6,0,1
1615918526203367,1,6,-9,-4,-7,0,4,0
1615918526226330,-3,-5,2,-1,0,1,3,-3
1615918526226330,-2,-1,-24,-3,0,-4,-15,-4
1615918526226330,6,-4,20,3,3,5,5,7
1615918526226330,1,6,-15,-2,-6,1,4,6
1615918526240293,-2,-3,-1,3,-3,-7,-3,0
1615918526240293,-6,-10,-28,-13,-6,2,4,-6
1615918526241266,3,7,4,-1,-7,2,-5,-2
1615918526241266,0,-4,-1,-4,0,-7,-1,2
1615918526262237,2,-2,0,-6,1,8,-8,-2
1615918526262237,-5,-6,-4,6,-14,6,6,-5
1615918526263231,-2,4,6,6,0,-2,5,-5
1615918526263231,-1,-6,-10,-4,-3,-6,-5,-5
1615918526286177,-1,6,0,5,8,8,11,2
1615918526286177,0,-5,-24,-10,2,-4,-33,-3
1615918526286177,-1,6,30,12,1,-11,-8,1
1615918526286177,-4,-5,-3,0,-22,-3,-2,-6
1615918526300136,-4,-7,-21,-3,36,11,-6,-2
1615918526300136,0,-9,-5,-2,-3,-6,8,-1
1615918526301106,-1,-1,5,-6,3,10,12,3
1615918526301106,-2,5,-4,-3,1,-6,-16,-5
1615918526323048,-5,-9,-3,-1,-8,-15,-6,-3
1615918526323048,2,6,23,9,11,-15,3,0
1615918526323048,-5,-13,-34,-18,-3,0,-1,-4
1615918526323048,1,10,26,10,17,4,2,-1
1615918526345015,2,5,9,1,-14,-8,-6,-2
1615918526345015,3,8,47,16,6,10,16,3
1615918526345986,-5,-13,-54,-13,-8,-4,-5,-4
1615918526345986,-4,1,34,4,-10,-11,-2,-1
1615918526359949,-1,-2,-13,-4,-9,-1,-7,-1
1615918526359949,-2,3,-2,-1,-7,4,9,1
1615918526367952,2,5,-5,-8,-4,-1,3,1
1615918526367952,-8,-10,-13,-4,-5,1,6,-3
1615918526390867,-1,-2,5,7,-5,-8,-3,-3
1615918526390867,3,4,11,3,-2,0,-7,-3
1615918526391863,-1,-1,-1,1,2,-9,-3,-1
1615918526391863,-8,-7,-21,-5,15,11,1,-5
1615918526405826,-3,-3,15,4,-8,-2,-1,-2
1615918526405826,-1,-3,-45,-16,-3,-8,2,1
1615918526406824,-3,-5,40,11,6,7,-3,-4
1615918526406824,-1,-3,-2,3,-23,-11,-6,-3
1615918526419813,1,5,-2,-2,22,5,5,-3
1615918526419813,0,-3,-14,-8,2,1,3,0
1615918526427795,4,7,4,12,2,3,7,5
1615918526427795,1,-2,0,-7,-10,-3,-4,0
1615918526442727,-4,-5,1,-2,-13,-3,-4,-3
1615918526442727,3,2,12,3,8,11,5,3
1615918526443725,-8,-14,-24,-12,-2,-9,-4,-7
1615918526443725,3,1,4,8,-2,6,-2,-1
1615918526465690,2,1,6,-6,3,4,7,4
1615918526465690,-1,4,14,4,0,-1,6,0
1615918526466663,3,6,1,7,-7,-6,-31,-2
1615918526466663,3,-2,-16,-3,6,7,0,1
1615918526479628,-3,-2,-12,-16,-9,-14,-6,-2
1615918526479628,-1,2,30,11,2,1,2,1
1615918526487607,0,0,2,-6,1,3,6,-1
1615918526487607,-2,2,-4,6,-5,-7,-1,-2
1615918526502567,2,1,-6,2,23,15,-4,3
1615918526502567,-2,-1,6,0,-13,-12,-6,-7
1615918526503564,2,0,-22,-9,-3,-4,9,4
1615918526503564,4,3,-16,1,10,5,4,2
1615918526525506,1,-6,6,1,-16,-3,4,0
1615918526525506,-7,0,8,1,26,0,-5,-7
1615918526526528,-2,-6,9,3,-1,4,12,1
1615918526526528,1,-5,-2,-13,-8,0,-8,0
1615918526548445,-5,-4,-4,7,-5,-3,-1,-4
1615918526548445,-3,4,-7,-8,1,7,-3,-4
1615918526549443,3,8,6,10,-16,4,5,2
1615918526549443,1,-2,7,0,19,-3,3,3
1615918526562407,2,0,-10,-3,-6,1,8,2
1615918526562407,-1,-3,-6,-4,-4,-11,-4,2
1615918526570412,-5,-2,16,5,-1,0,-15,-6
1615918526570412,-2,-3,-8,-4,-6,1,-1,-1
1615918526585346,-1,-2,-5,-4,7,2,-7,-4
1615918526585346,0,-5,-10,-2,-10,-8,5,1
1615918526586343,4,1,1,-2,7,9,-1,7
1615918526586343,-3,-3,-5,-5,0,-2,8,1
1615918526599308,-1,7,11,0,-7,-9,-8,-4
1615918526599308,-7,-6,1,8,3,6,5,-2
1615918526607287,-3,2,-4,-6,2,3,-2,-3
1615918526607287,-4,-6,4,6,35,6,-2,-6
1615918526623245,0,-1,-14,-9,-7,2,-6,2
1615918526623245,3,1,-12,7,-6,-5,2,2
1615918526623245,-4,-2,-2,-14,-3,3,-4,-5
1615918526623245,-2,3,52,27,-13,4,7,1
1615918526645186,-3,-2,-13,-5,-5,-6,-8,-6
1615918526645186,2,-4,-14,-8,-1,-5,4,1
1615918526646183,-11,-11,2,-6,6,-6,-35,-10
1615918526646183,4,0,-21,-14,-5,2,-2,-1
1615918526660146,0,1,-6,2,-6,-7,10,3
1615918526660146,-1,3,13,0,2,-4,-7,-2
1615918526668150,0,0,-18,-6,0,-1,8,-1
1615918526668150,-1,-8,-10,-24,-6,5,4,1
1615918526683112,5,12,57,42,3,-6,3,3
1615918526683112,1,2,-38,-22,-9,-1,-3,2
1615918526683112,1,1,14,15,17,-9,-1,-2
1615918526683112,-1,-1,-15,-7,-3,-2,0,0
1615918526705027,-1,-7,-20,-12,-8,-6,4,-1
1615918526705027,8,5,17,6,4,3,10,5
1615918526706024,6,12,4,-1,-3,-1,-1,0
1615918526706024,2,-3,-22,-7,-17,-3,2,4
1615918526728987,-1,0,9,-8,-1,-7,-3,-1
1615918526728987,5,3,-2,9,-10,2,10,4
1615918526728987,-8,-9,-9,-4,3,14,6,-5
1615918526728987,0,5,6,0,6,-3,-7,-3
1615918526742925,-1,-2,-14,-5,-2,0,-1,-2
1615918526742925,-12,-9,19,10,-1,9,-8,-7
1615918526743923,1,-9,-62,-27,-12,-11,4,1
1615918526743923,-1,12,91,43,-7,-6,0,3
1615918526764891,-2,-5,-24,-19,13,14,-4,-1
1615918526764891,-1,-3,-5,2,-8,-2,-2,-1
1615918526765863,1,3,-6,2,6,2,12,3
1615918526765863,-2,-8,-18,-8,-4,7,-2,-4
1615918526788316,4,4,4,-4,-7,-3,5,3
1615918526788316,3,-3,12,9,1,3,-5,0
1615918526789313,-1,-4,-4,-8,-5,-10,3,-2
1615918526789313,3,1,-15,-8,5,2,2,-1
1615918526803275,-2,-3,13,3,-6,0,-5,-1
1615918526803275,0,4,13,3,6,1,-4,1
1615918526803275,2,-3,9,15,-5,-4,4,4
1615918526803275,-1,6,-25,-17,0,-6,-3,-3
1615918526825216,5,5,10,18,2,0,-11,-1
1615918526825216,-2,-2,-7,-7,-9,-15,-6,-3
1615918526826213,-6,-2,41,7,2,16,5,-1
1615918526826213,-5,-6,-10,2,-5,-3,2,-4
1615918526849176,-4,-4,-15,-11,-3,10,1,-2
1615918526849176,0,-1,-8,-5,0,-11,0,1
1615918526850174,1,3,6,-2,-5,-1,-1,2
1615918526850174,-4,-4,-6,-1,2,-5,4,-3
1615918526863138,-2,1,-5,-5,3,-1,2,-1
1615918526863138,-4,-4,21,9,-3,-7,-23,-6
1615918526864136,1,3,7,2,-2,-3,-1,2
1615918526864136,-1,-2,3,-2,0,-10,-9,-6
1615918526885080,-4,-9,-20,-7,0,-7,-1,-1
1615918526885080,-5,-1,1,-4,1,-3,-8,-6
1615918526886054,-2,1,-11,0,-3,-5,-7,-4
1615918526886054,-3,-6,-5,-2,0,5,0,3
1615918526907996,-5,-5,5,-1,2,-1,6,0
1615918526907996,4,8,18,11,17,2,4,2
1615918526908993,0,-3,-19,-8,-3,-4,-12,-3
1615918526908993,5,4,13,5,3,7,7,5
1615918526922980,-1,-1,-22,-7,-6,-5,-5,-3
1615918526922980,2,-1,-16,1,3,8,22,7
1615918526923953,4,7,13,7,-4,2,2,4
1615918526923953,1,-4,-3,-5,-5,-8,-7,-1
1615918526944897,-3,-2,-4,-3,0,-3,-3,-4
1615918526944897,-2,-3,-1,-9,-2,8,-12,-4
1615918526945894,3,0,-3,2,-5,-8,6,3
1615918526945894,-2,-2,-16,-5,1,-3,2,1
1615918526968857,3,12,32,15,-1,7,11,3
1615918526968857,-4,-10,-33,-23,-3,0,-4,-3
1615918526968857,-6,-1,37,15,-1,-5,6,-3
1615918526968857,1,-1,-3,-5,-3,-2,-6,0
1615918526982819,-4,-1,-17,-7,-5,-8,-2,-4
1615918526982819,0,-2,16,11,-6,-3,9,1
1615918526983793,2,-4,-34,-9,-1,-2,2,0
1615918526983793,-3,14,9,2,1,-2,1,-3
1615918527005733,-1,-3,18,3,3,14,-6,0
1615918527005733,-2,-9,-31,-15,-8,-5,-1,-5
1615918527005733,-2,-4,-1,-5,1,-5,-2,-3
1615918527005733,0,4,3,5,8,0,-1,1
1615918527028701,0,-7,-9,-4,-6,-9,-11,-1
1615918527028701,2,0,11,1,13,-3,10,1
1615918527029697,-7,-13,-5,9,4,0,-7,-5
1615918527029697,-4,-1,21,-6,-10,-5,-4,-5
1615918527042635,1,-3,6,16,8,2,2,1
1615918527042635,2,8,-6,-10,6,11,6,1
1615918527043633,-1,-4,-5,-8,-11,-2,-5,-2
1615918527043633,0,-12,-32,-12,11,0,-4,1
1615918527065573,-4,0,15,5,5,-4,-1,-2
1615918527065573,0,-2,-5,-4,-10,-11,-7,4
1615918527066571,2,10,12,6,3,10,4,2
1615918527066571,-5,-12,-8,-5,-4,-5,-3,-4
1615918527088513,1,-4,-17,-9,-5,-10,-9,-1
1615918527088513,-6,10,-5,8,5,6,-3,-2
1615918527089511,1,-1,9,6,0,-1,-2,0
1615918527089511,-6,-3,-5,0,9,-4,6,-2
1615918527102475,0,-5,-5,-4,-3,3,-5,-3
1615918527102475,0,-5,-19,-11,-10,-9,-4,-1
1615918527103472,3,9,-1,2,0,14,3,1
1615918527103472,2,-1,15,7,-7,-7,-4,-1
1615918527125414,-1,3,-16,-5,-5,-3,10,2
1615918527125414,0,1,6,9,11,10,-7,-2
1615918527126411,-1,2,9,-16,-3,-9,-6,-1
1615918527126411,2,6,11,22,-1,4,0,2
1615918527148352,-7,-5,-18,-9,5,-16,-7,-7
1615918527148352,5,6,28,14,-3,5,2,1
1615918527149350,-1,-3,-14,-11,1,-3,0,1
1615918527149350,-6,-7,-17,-11,-1,-1,-4,-3
1615918527162315,2,0,-4,1,-4,0,-2,-3
1615918527162315,0,2,24,8,-7,-16,-31,-3
1615918527163312,-5,-9,-15,-2,4,9,13,-1
1615918527163312,7,6,-9,-15,-12,-12,-7,1
1615918527185277,-2,2,10,6,-11,-7,3,-1
1615918527185277,-1,-1,4,-4,3,3,5,-1
1615918527186252,-4,-7,-11,-6,0,-4,-4,-7
1615918527186252,3,1,-5,3,-4,2,-1,4
1615918527209215,-4,6,20,-4,5,10,9,1
1615918527209215,-6,-6,10,7,-1,-3,-1,-6
1615918527210188,-5,-1,-2,-3,8,-6,-7,-2
1615918527210188,2,3,-1,-3,-4,0,1,-1
1615918527223153,3,4,15,4,2,2,-2,5
1615918527223153,-2,-5,-28,-8,19,8,16,-1
1615918527223153,1,3,11,-4,-19,-11,-22,0
1615918527223153,-5,-6,5,13,7,5,0,-2
1615918527245535,-2,-1,-12,-7,-2,0,1,-2
1615918527245535,-3,-6,-27,-9,-8,-7,8,-1
1615918527246533,1,2,23,23,-4,6,11,2
1615918527246533,-2,1,-17,-9,-2,-4,-9,-4
1615918527268473,0,-3,-2,-1,-1,-5,-8,1
1615918527268473,-2,1,9,-4,0,6,8,-1
1615918527269447,-3,-10,-25,-11,-2,5,8,-2
1615918527269447,-1,3,0,1,2,-1,-11,-4
1615918527282438,3,-2,6,5,17,-5,11,5
1615918527282438,2,0,2,-9,-12,-8,-30,-3
1615918527283410,-6,-4,-10,-1,9,-5,1,-4
1615918527283410,-4,-5,-3,-3,0,7,13,3
1615918527305609,-3,-7,-4,-9,-6,5,-11,-4
1615918527305609,-3,-2,15,14,0,1,1,0
1615918527305609,3,2,17,3,1,7,-1,0
1615918527305609,-1,-5,-34,-21,-8,-8,1,0
1615918527328552,-1,-5,-14,2,-2,-4,-2,-2
1615918527328552,1,5,45,15,-1,-6,3,3
1615918527329544,-2,-4,-15,-7,-10,1,-10,-3
1615918527329544,0,5,16,4,19,12,15,-1
1615918527342509,0,-6,-27,-9,-6,-10,-30,-6
1615918527342509,1,0,3,2,-6,0,6,1
1615918527357494,-1,4,16,7,0,-4,-5,-3
1615918527357494,1,-1,-1,-2,-4,-8,-8,-1
1615918527365471,-2,2,5,2,2,1,4,-2
1615918527365471,1,-5,-28,-12,0,-1,0,1
1615918527366445,4,5,22,1,-5,-7,10,7
1615918527366445,-6,-7,5,4,-6,-6,2,-4
1615918527389384,2,5,-6,10,3,-2,0,0
1615918527389384,5,9,2,5,-8,-2,2,3
1615918527390381,1,-4,-24,-15,-1,5,8,-1
1615918527390381,2,11,15,2,-8,-4,-2,-2
1615918527403346,0,-2,-2,-3,-6,11,-3,3
1615918527403346,-5,-3,-9,0,3,-5,-4,-7
1615918527410352,6,2,-15,-5,-3,-10,0,4
1615918527410352,7,0,15,8,12,12,1,9
1615918527425311,-6,-3,17,0,0,-8,-8,-14
1615918527425311,-5,-3,-19,-4,-16,0,-1,-3
1615918527426285,-1,-2,10,6,0,2,1,1
1615918527426285,-1,-3,-10,-4,-10,-7,-7,-2
1615918527448250,-4,-4,-15,-8,-1,0,13,0
1615918527448250,-2,3,21,-2,-3,-4,-7,0
1615918527449224,-4,-7,-31,0,0,0,-3,-3
1615918527449224,-3,1,10,4,3,4,1,0
1615918527462214,-1,1,10,1,3,-9,5,2
1615918527462214,-1,-2,-13,-12,-6,-2,4,0
1615918527470191,-5,-5,2,4,2,-4,-2,-1
1615918527470191,-1,1,-10,-7,0,-9,-8,-3
1615918527485152,6,3,-2,2,-2,9,10,5
1615918527485152,1,9,30,6,-1,-9,-2,-1
1615918527486126,-6,-11,-17,-10,5,6,-2,-5
1615918527486126,0,-6,-11,2,-1,-6,0,-2
1615918527508090,-1,0,11,6,-12,-2,-4,-3
1615918527508090,1,-9,-26,-4,24,14,-9,-1
1615918527509064,4,5,-19,-4,-8,-8,0,3
1615918527509064,-2,-2,9,-1,-5,1,13,-1
1615918527522030,-1,0,-24,-8,-7,1,10,2
1615918527522030,-2,-3,10,3,11,12,-2,-2
1615918527531031,-2,-2,-4,-4,-5,-3,-9,-3
1615918527531031,0,-3,12,4,-2,-3,0,0
1615918527544968,5,4,12,3,-1,2,3,5
1615918527544968,-3,-7,-26,-20,-6,-4,-2,-2
1615918527545965,-3,2,37,18,1,-1,1,-1
1615918527545965,-2,3,-15,10,0,2,-6,-8
1615918527568928,1,0,-9,-12,-11,0,3,1
1615918527568928,-8,-5,-6,-2,0,4,3,-4
1615918527568928,4,7,4,-13,-4,-6,2,1
1615918527568928,-1,0,14,1,-7,-1,-3,0
1615918527581893,2,13,18,5,-1,0,-4,1
1615918527581893,-3,-8,-13,7,6,3,3,-4
1615918527590846,2,3,12,-7,4,6,1,3
1615918527590846,-6,-8,-1,-3,-2,-2,-7,-6
1615918527613895,0,-1,1,0,2,0,-4,-3
1615918527613895,-1,-2,-5,-3,-7,-14,8,3
1615918527614782,3,0,19,13,2,4,-4,2
1615918527614782,-2,-6,-6,-9,0,4,-5,-2
1615918527627771,1,-5,12,1,-7,4,5,5
1615918527627771,-2,-1,-12,-6,-5,-3,3,0
1615918527635726,1,-3,4,3,-4,2,9,0
1615918527635726,-1,-3,-16,-9,1,-7,-20,-1
1615918527658689,-1,4,13,6,9,-1,-1,-2
1615918527658689,2,-3,-4,-4,-9,1,4,3
1615918527659686,-3,-4,-23,-12,-3,0,6,-4
1615918527659686,-1,4,10,6,0,2,-4,-1
1615918527665646,-7,-8,-6,-3,4,4,-5,-5
1615918527665646,0,-1,-19,3,-6,-13,-5,0
1615918527666643,-5,-2,14,7,-2,-7,-2,-9
1615918527666643,-3,-8,-27,-12,-1,-4,-22,-3
1615918527688585,-2,-1,-10,-10,-10,-7,0,3
1615918527688585,1,2,-1,6,-3,0,0,-2
1615918527690580,-13,-6,-4,-10,0,1,2,-5
1615918527690580,2,6,19,14,1,-4,2,-2
1615918527710897,6,-2,-14,-10,-2,0,3,5
1615918527710897,-6,-7,5,-1,-5,11,4,-1
1615918527711866,0,5,-10,-15,-1,-25,-9,-2
1615918527711866,-3,6,51,29,4,-4,1,-1
1615918527724857,-5,-3,-20,-5,-5,-3,-2,-5
1615918527724857,3,2,21,4,2,4,-15,-1
1615918527725829,5,6,-12,-3,-1,5,5,6
1615918527725829,-1,1,2,-3,-5,3,13,1
1615918527747794,-2,4,16,6,-1,-11,-4,-3
1615918527747794,2,2,-5,-10,11,9,-3,1
1615918527748768,0,3,-5,5,3,2,-3,0
1615918527748768,-1,-1,10,4,-4,-3,0,0
1615918527770732,-2,-6,-7,-1,8,4,-3,-5
1615918527770732,4,1,7,-8,-7,5,10,1
1615918527771706,-7,8,9,10,0,-1,-15,-5
1615918527771706,6,-1,7,5,1,-3,11,5
1615918527785692,-6,-14,-8,-4,1,1,-3,-4
1615918527785692,6,2,-1,12,10,-5,4,5
1615918527785692,-4,-10,-16,-18,7,-4,3,-8
1615918527785692,-3,-4,-6,-7,-5,-3,0,0
1615918527807635,-3,3,18,10,-3,-5,-1,-2
1615918527807635,0,-7,-13,0,0,-2,-2,3
1615918527808607,3,1,7,2,3,21,7,1
1615918527808607,-3,-4,-16,-14,5,-4,5,-1
1615918527830548,1,-4,-3,1,2,-6,-5,1
1615918527830548,-9,-1,-9,-1,-1,-6,-1,-9
1615918527831546,3,-5,-5,2,-9,-7,-10,1
1615918527831546,-9,-7,-31,-10,-1,1,-9,-9
1615918527845508,-6,3,31,9,3,-2,-11,-4
1615918527845508,3,5,22,5,-1,-6,3,2
1615918527846506,-5,-9,-1,8,-3,-2,-3,-2
1615918527846506,2,-5,-30,-20,-13,-1,10,-2
1615918527867450,1,-5,-20,-2,-5,-9,-27,-1
1615918527867450,-8,0,3,-3,1,0,-6,-8
1615918527868447,3,1,13,6,-1,1,2,5
1615918527868447,3,3,-1,-4,-2,6,7,4
1615918527891386,-3,1,19,12,-5,-16,1,-3
1615918527891386,-4,-4,-19,-15,-11,-4,-7,-2
1615918527891386,3,1,-15,-12,0,-2,0,1
1615918527891386,0,-2,13,15,4,2,3,1
1615918527913351,5,2,2,-4,7,3,2,2
1615918527913351,1,0,-3,-1,-4,-10,-3,-2
1615918527914325,0,-4,-9,-8,-7,-2,7,2
1615918527914325,5,10,30,10,3,-9,3,4
1615918527927315,-1,-2,-18,-12,0,2,3,-1
1615918527927315,-6,-3,13,11,-1,1,2,-4
1615918527935269,8,4,1,-2,2,0,9,9
1615918527935269,-5,-9,-12,3,-4,4,5,-1
1615918527958231,1,12,31,13,-7,-9,-4,-5
1615918527958231,-6,-5,-35,-20,7,3,-10,-9
1615918527959204,-2,7,18,9,-9,-3,-3,-3
1615918527959204,0,-8,-35,-13,-8,-10,-19,-1
1615918527965213,10,0,19,6,6,13,14,4
1615918527965213,-4,-9,-25,-15,-10,-3,9,4
1615918527966187,-5,2,18,-1,15,-8,-17,-7
1615918527966187,2,3,1,5,5,-1,-3,-2
1615918527988127,-5,-6,-13,-10,-7,1,4,0
1615918527988127,4,2,-8,-1,-8,0,-2,4
1615918527989126,-1,-5,5,11,-2,12,6,2
1615918527989126,-5,-8,-6,-3,-4,1,5,-1
1615918528011067,2,2,-15,-15,7,0,6,0
1615918528011067,-2,5,34,16,2,-11,-8,-3
1615918528012064,-3,0,-19,-4,-6,-3,-5,-4
1615918528012064,1,-5,-10,-9,-2,9,-2,-1
1615918528025055,-1,2,7,7,1,-3,6,-2
1615918528025055,4,4,4,1,-1,-4,2,1
1615918528026027,5,2,14,4,-1,-2,-4,5
1615918528026027,-3,1,-9,-1,-1,2,-8,-4
1615918528047992,-5,-1,25,2,1,7,-1,-4
1615918528047992,-1,-2,-1,3,0,1,2,-2
1615918528048965,0,-5,-10,3,-4,-2,-6,-3
1615918528048965,5,2,-4,-7,9,0,0,-1
1615918528070905,-2,2,-20,-9,-7,2,-3,0
1615918528070905,-1,2,14,5,7,5,4,3
1615918528071905,-6,-9,-8,-8,-2,-6,-12,-6
1615918528071905,6,3,3,-5,-1,6,11,7
1615918528084892,-5,-3,-1,7,-5,-12,-4,-7
1615918528084892,2,-6,-3,-7,1,6,-3,3
1615918528085866,2,6,-16,-12,-1,0,-1,-2
1615918528085866,-1,5,16,6,-5,-8,-5,-1
1615918528115812,-1,-4,-4,4,-6,17,0,0
1615918528115812,0,-4,-38,-24,0,-6,-5,-4
1615918528116788,-2,7,71,40,6,7,7,1
1615918528116788,2,2,-19,-12,-5,-2,7,5
1615918528130746,-6,-6,-15,-8,0,-3,-2,-6
1615918528130746,0,-4,0,-5,-6,-3,2,4
1615918528131743,-4,-9,-27,-14,-6,-4,1,-3
1615918528131743,-1,3,6,2,-2,1,-7,-5
1615918528145706,1,-3,-13,-2,3,-6,8,0
1615918528145706,-2,-2,41,13,-3,-10,-36,-5
1615918528145706,-2,-7,-9,-8,-7,3,9,1
1615918528145706,-5,-3,13,4,-6,4,-1,-3
1615918528168237,-7,-11,-31,-11,4,2,-4,-4
1615918528168237,0,1,11,6,-3,-4,5,-2
1615918528168237,2,3,0,-2,2,2,-4,0
1615918528168237,3,-7,-27,-13,3,-1,-9,-1
1615918528191177,1,3,35,35,24,4,-8,0
1615918528191177,3,10,-19,-4,-9,3,3,0
1615918528192173,4,-3,-16,-6,8,-1,2,4
1615918528192173,0,4,-7,-7,-4,-7,3,-3
1615918528213142,-2,-9,-12,-11,-2,5,5,3
1615918528213142,0,-2,5,1,2,4,2,2
1615918528214137,3,-1,-10,-3,-4,-12,5,1
1615918528214137,-7,1,-7,-1,-7,-6,4,-6
1615918528228104,0,4,11,3,-5,3,-8,-1
1615918528228104,1,-2,18,7,-4,-3,6,1
1615918528229099,-5,1,-9,-7,-16,6,-11,-5
1615918528229099,-1,-4,12,4,-1,-3,0,2
1615918528251016,4,-2,-18,-11,-11,-5,13,5
1615918528251016,-6,0,-30,-11,0,-1,-5,-8
1615918528252013,5,12,73,36,3,1,-1,3
1615918528252013,-1,-8,-20,-9,4,1,-5,-3
1615918528264978,-4,-1,13,1,-2,-4,7,-1
1615918528264978,-4,0,-21,-12,-7,-2,-22,0
1615918528272958,1,-5,-37,-17,4,2,-3,-4
1615918528272958,-5,0,17,5,0,1,-3,-5
1615918528287917,3,0,22,16,-3,-8,0,2
1615918528287917,-3,-2,3,-3,0,-2,6,-1
1615918528289912,-3,2,17,8,5,3,1,-2
1615918528289912,-6,-9,-24,-22,-4,2,-3,-2
1615918528310856,2,11,27,8,-10,-2,-13,-1
1615918528310856,-1,-4,16,10,8,3,13,1
1615918528311853,-2,-4,-30,-11,4,4,-2,-1
1615918528311853,-3,-5,23,11,1,2,-5,-1
1615918528324818,5,10,8,-2,5,-16,-5,-1
1615918528324818,6,3,5,7,17,4,5,4
1615918528332797,-2,-4,-14,-7,-8,-2,11,1
1615918528332797,-2,-6,-26,-5,-6,-9,-27,0
1615918528355737,-2,3,30,1,1,5,1,-2
1615918528355737,2,4,17,21,-10,-2,7,1
1615918528356734,-1,-6,-29,-27,-10,-7,-4,-4
1615918528356734,2,5,-7,8,2,2,12,2
1615918528378754,-3,-1,7,14,-1,7,-8,-3
1615918528378754,-4,-12,-31,-22,-9,-2,0,-1
1615918528379762,-5,0,20,11,0,-5,4,-2
1615918528379762,2,-1,-7,-4,1,3,-6,0
1615918528384745,4,-5,-36,-22,-1,4,15,6
1615918528384745,5,7,34,12,-12,-8,-15,1
1615918528400727,1,4,-16,-2,3,-13,-10,-1
1615918528400727,3,-4,-19,-11,1,-2,8,3
1615918528407682,-2,2,45,30,5,6,-4,-3
1615918528407682,-6,-4,-36,-22,-4,-5,7,-4
1615918528408680,1,-5,-3,13,4,-1,1,4
1615918528408680,4,8,6,-2,-8,-5,3,3
1615918528431482,-4,-8,-40,-21,-6,-2,1,-3
1615918528431482,0,1,13,4,1,6,9,2
1615918528431482,-8,-6,-11,-11,0,-2,-13,-8
1615918528431482,-1,-1,18,14,3,-1,6,1
1615918528444451,0,1,0,-9,0,-2,-3,0
1615918528444451,-2,2,-4,0,2,3,1,-3
1615918528452453,3,3,21,6,-2,3,12,3
1615918528452453,-2,-1,5,4,4,-1,-25,-7
1615918528468124,-4,-1,-1,-4,3,3,0,2
1615918528468124,-4,-2,-8,-7,17,-5,-5,-4
1615918528469121,-3,-1,2,7,-9,-2,5,-4
1615918528469121,1,-2,15,4,3,5,7,2
1615918528491063,2,-8,-49,-20,14,3,-6,-1
1615918528491063,-4,7,49,23,-2,6,-6,-6
1615918528492060,0,-2,-5,-5,4,5,1,-1
1615918528492060,-4,-4,11,6,0,-7,4,-2
1615918528505026,-5,-11,-24,-16,-7,-7,-5,-4
1615918528505026,0,1,21,4,-1,2,3,0
1615918528513004,5,-2,2,0,2,-2,-1,5
1615918528513004,-3,7,-6,-10,0,-4,-22,-3
1615918528527907,-4,-3,8,15,-3,-1,9,-7
1615918528527907,4,-1,-20,-11,-7,1,3,5
1615918528528904,-6,-1,-2,2,-1,1,-3,-3
1615918528528904,2,-2,-11,-8,6,12,12,7
1615918528550869,1,2,13,-2,-6,-13,-6,-2
1615918528550869,-4,0,6,8,-7,-7,-6,-3
1615918528551843,2,-2,-11,-8,-1,7,2,-1
1615918528551843,-8,-8,-34,-14,-8,-2,2,-10
1615918528564834,10,13,49,14,4,-2,0,11
1615918528564834,-1,-6,-24,-7,-5,-1,4,-2
1615918528572787,-3,-1,-1,-2,1,3,-4,-4
1615918528572787,4,-3,7,0,-5,-8,2,-1
1615918528587746,-1,-8,-30,-9,-8,-3,-8,-2
1615918528587746,-3,-4,2,-1,-5,-8,2,-4
1615918528589742,-2,-3,-14,-11,-5,-1,-32,-3
1615918528589742,0,2,4,-5,3,2,3,-2
1615918528610709,-6,2,6,7,8,4,-3,-7
1615918528610709,-5,-10,-22,-7,-1,-3,3,-3
1615918528611683,2,7,27,7,-9,-2,0,4
1615918528611683,-1,-3,3,1,2,4,5,0
1615918528633651,-2,-10,0,-5,-8,-7,5,-2
1615918528633651,5,-1,-34,-8,3,1,-2,5
1615918528634621,-2,6,47,8,5,3,5,1
1615918528634621,2,5,1,20,2,-9,1,2
1615918528647586,-4,-4,-16,-12,2,-1,2,-4
1615918528647586,2,-4,-4,8,-3,3,-1,-1
1615918528648584,-3,-6,-24,-15,-1,-6,12,-3
1615918528648584,0,1,9,3,-2,1,-21,0
1615918528670525,-3,0,-3,7,-7,0,-3,-3
1615918528670525,2,-2,-18,-16,1,5,3,3
1615918528671523,2,3,-2,7,1,5,-1,3
1615918528671523,-2,2,25,8,-5,-7,6,-4
1615918528692466,-1,-8,-34,-14,3,1,-4,-1
1615918528692466,-3,6,11,1,3,4,-9,0
1615918528700473,-2,-1,-5,-3,0,-1,7,0
1615918528700473,0,-2,1,3,5,0,0,0
1615918528707427,-2,4,2,-1,-10,-2,-2,1
1615918528707427,-2,1,-17,-8,16,-10,-3,-3
1615918528708425,-5,-7,17,16,0,-6,-8,-7
1615918528708425,0,-6,-19,-28,-7,-2,23,4
1615918528731362,2,14,61,28,6,4,-32,-6
1615918528731362,0,-5,-4,-4,-2,-3,3,0
1615918528731362,-1,-10,-35,-8,-7,-12,-3,1
1615918528731362,4,8,8,3,-1,7,9,4
1615918528753304,-10,-12,-11,-1,-8,7,11,-4
1615918528753304,5,0,5,-1,3,-3,0,4
1615918528754302,1,4,0,-2,5,-2,-12,-6
1615918528754302,-4,-2,-4,-3,-4,-1,1,-4
1615918528768264,8,3,17,13,3,0,9,14
1615918528768264,-13,-9,9,0,-6,-8,-11,-10
1615918528768264,-3,-2,-13,-7,-6,6,4,-4
1615918528768264,-4,-3,-15,-9,12,1,-5,-2
1615918528791203,2,1,0,3,-8,3,5,1
1615918528791203,0,1,7,-9,-4,-4,3,1
1615918528792200,0,-7,-17,-4,0,-2,4,1
1615918528792200,-4,-1,24,16,-4,3,-7,-6
1615918528813144,-1,-2,-18,-16,2,4,8,1
1615918528813144,4,3,18,3,-4,-5,3,4
1615918528814141,-1,-1,-7,0,2,2,2,0
1615918528814141,2,6,4,4,-8,-5,3,3
1615918528828104,-2,-11,-21,-11,11,1,-1,-1
1615918528828104,3,8,9,6,-13,3,-1,2
1615918528829101,5,4,12,6,-14,-12,-4,1
1615918528829101,-3,-4,-13,-1,10,-4,-12,-8
1615918528851042,-4,-8,-21,-11,0,1,7,-2
1615918528851042,0,2,49,17,12,6,-16,1
1615918528852040,-3,-5,-15,-6,-12,1,3,-1
1615918528852040,-1,7,9,9,9,-3,-1,0
1615918528873981,-4,-9,-50,-38,-22,-7,-15,-6
1615918528873981,2,2,23,21,22,-7,11,4
1615918528873981,-5,-6,7,0,1,6,-1,1
1615918528873981,3,2,24,8,-6,0,-3,2
1615918528888286,-2,2,-14,-2,-2,2,4,0
1615918528888286,-2,-6,-3,7,2,3,0,-4
1615918528889284,5,7,-8,-7,9,2,-5,3
1615918528889284,-5,0,-22,-16,-4,-2,10,0
1615918528911248,2,6,35,21,6,2,5,0
1615918528911248,0,-1,-5,-4,-8,-1,-24,-3
1615918528912246,-2,-5,-23,-10,7,4,5,-2
1615918528912246,6,8,9,10,-1,3,-6,6
1615918528933978,3,10,30,13,0,-5,1,-2
1615918528933978,0,-12,-22,-16,-3,4,6,4
1615918528933978,-3,6,-15,-7,3,-1,0,-2
1615918528933978,0,-1,37,15,-4,-4,-5,-2
1615918528947940,-1,-8,-30,-28,-16,-15,4,5
1615918528947940,3,16,35,23,-5,-5,1,-3
1615918528948938,-2,-2,18,0,2,4,-4,1
1615918528948938,-3,-9,-29,-11,-2,0,3,0
1615918528970880,-2,1,-11,0,-1,-7,-9,-5
1615918528970880,-7,-8,-25,-17,-9,1,4,-2
1615918528971877,-3,-5,-11,-4,4,-9,-6,-4
1615918528971877,7,11,13,2,-4,5,8,5
1615918528993818,-1,0,7,8,2,1,3,3
1615918528993818,-2,-4,-28,-14,-1,2,-1,-3
1615918528994815,-5,1,14,2,-4,-3,5,-5
1615918528994815,0,-12,-28,-15,-7,-10,-5,1
1615918529007780,-2,-7,-29,-10,-3,-1,-2,0
1615918529007780,1,7,19,11,7,9,15,-3
1615918529008778,0,-5,-17,-13,-8,-4,-1,3
1615918529008778,-7,-1,8,6,13,-9,-7,-6
1615918529038765,2,5,-2,7,-3,4,1,3
1615918529038765,-5,-2,-3,-5,-12,-4,-9,0
1615918529039761,2,-5,-15,-9,-6,4,2,1
1615918529039761,-1,-2,-20,-11,0,2,-2,-3
1615918529053720,-2,-1,19,11,3,-3,-1,-3
1615918529053720,2,0,-20,-5,2,5,12,3
1615918529054745,0,5,4,-6,-8,-8,-32,-1
1615918529054745,-2,4,22,11,7,2,12,2
1615918529067707,-3,4,15,5,8,11,-6,-5
1615918529067707,-2,-10,-9,-5,-7,3,-2,1
1615918529068681,-7,0,-4,6,-2,-12,0,-3
1615918529068681,-3,-7,-5,-2,-12,5,-1,-5
1615918529090681,3,1,-22,-9,6,0,-4,-1
1615918529090681,-4,0,-4,1,2,-12,-10,-7
1615918529091680,0,-3,4,-1,6,5,6,1
1615918529091680,-3,-5,-40,-16,-12,-10,-6,-3
1615918529113641,1,5,77,35,11,9,-2,3
1615918529113641,-6,-7,-22,-13,-8,-4,-1,-5
1615918529114614,-1,6,13,1,-2,2,9,1
1615918529114614,4,1,-22,-5,0,-3,-16,-1
1615918529127578,0,-1,-2,-3,-12,-7,1,-1
1615918529127578,-4,2,4,4,8,4,-8,-3
1615918529128576,-5,-7,-1,0,2,-4,1,-3
1615918529128576,1,-1,3,-6,10,6,2,-2
1615918529150852,-3,-3,2,0,-2,-5,-5,-5
1615918529150852,1,-2,16,7,-8,-5,0,2
1615918529150852,-4,-2,0,-3,5,1,2,-8
1615918529150852,-1,1,-3,2,-1,8,5,2
1615918529173791,1,-3,-9,-15,-8,-9,5,7
1615918529173791,-2,8,-16,0,10,15,-2,-5
1615918529174788,0,-1,3,4,-3,-7,8,0
1615918529174788,-6,-4,6,5,-5,-5,-25,-2
1615918529186926,-13,-1,34,10,6,-4,-8,-11
1615918529186926,6,-4,-9,-8,-7,-4,7,6
1615918529194931,2,-1,-11,-3,14,13,8,3
1615918529194931,-5,-6,3,18,1,-7,1,-2
1615918529210861,3,0,-24,-17,-2,-2,-2,-1
1615918529210861,-1,-5,0,6,10,-6,-3,-2
1615918529210861,3,5,11,-3,-1,-2,1,-2
1615918529210861,-4,-12,-1,-9,-7,-5,4,0
1615918529233824,-2,-1,-14,-2,0,1,-5,-2
1615918529233824,3,3,16,0,-9,0,6,5
1615918529234822,5,5,-17,-5,-5,-2,6,3
1615918529234822,3,4,19,10,4,3,7,5
1615918529246790,-4,-4,-1,-2,-2,4,-2,-5
1615918529246790,-3,-8,-12,-7,-2,-4,-3,-1
1615918529255742,0,0,-3,-3,0,0,1,1
1615918529255742,0,0,18,14,4,-4,-4,-4
1615918529270701,2,0,-35,-19,-8,-5,-9,-3
1615918529270701,0,-5,-4,3,0,-5,12,1
1615918529271700,1,5,27,16,-3,4,-9,0
1615918529271700,-4,-4,-17,-13,4,0,1,-5
1615918529293665,7,6,20,7,-11,-3,3,7
1615918529293665,-5,1,-11,-10,-3,1,-10,-5
1615918529294663,0,-4,4,4,2,-9,-2,0
1615918529294663,1,1,5,-5,-7,4,-1,0
1615918529307628,-8,-6,-16,4,10,3,8,-4
1615918529307628,0,7,18,0,-5,-5,-7,-3
1615918529315581,-2,-2,-1,-3,2,-1,-5,2
1615918529315581,0,1,2,9,-5,-2,8,-1
1615918529330566,-6,-3,1,3,3,7,2,-3
1615918529330566,-2,-6,-17,-14,0,-1,0,-4
1615918529331539,-3,3,11,9,-14,-11,-14,-7
1615918529331539,0,-6,-14,-17,-3,0,-4,-1
1615918529353504,1,-1,-14,-9,-3,2,5,2
1615918529353504,-1,-6,4,11,0,-6,-1,-3
1615918529354478,4,5,19,3,5,5,10,6
1615918529354478,-7,5,4,-3,2,2,-29,-9
1615918529367467,0,-8,-36,-20,-7,-10,-4,-1
1615918529367467,-12,-11,11,7,-5,2,1,-9
1615918529375421,4,-1,14,2,4,3,-4,4
1615918529375421,2,6,14,14,-2,-1,11,2
1615918529390383,1,2,-2,-7,2,8,3,3
1615918529390383,0,5,6,3,-11,-13,-7,0
1615918529391380,-3,-6,-14,-2,-1,-7,-3,-3
1615918529391380,3,0,9,1,-2,7,2,1
1615918529413321,0,-7,-21,-7,-1,-7,-3,-2
1615918529413321,5,4,5,2,-9,1,15,6
1615918529414317,-8,-6,-9,-1,1,3,-12,-10
1615918529414317,5,2,0,-7,-4,-2,6,3
1615918529427284,-10,1,-1,-1,1,-8,-10,-9
1615918529427284,4,5,18,7,2,1,8,6
1615918529443240,-2,-5,-3,-4,-4,-3,-16,-3
1615918529443240,1,-5,-17,-12,0,0,1,-2
1615918529450222,3,15,26,32,3,-5,3,3
1615918529450222,0,5,-18,-5,2,1,-4,1
1615918529451219,4,-1,-1,-8,4,2,-3,1
1615918529451219,-4,-7,-4,-8,9,4,9,-3
1615918529473905,-4,-6,-9,-5,-5,-4,-2,1
1615918529473905,-3,-3,5,-3,-2,-14,-7,-2
1615918529473905,1,4,-5,3,-2,-1,3,3
1615918529473905,-2,-5,17,5,-5,-2,-1,-2
1615918529486870,4,-4,7,2,0,0,-15,-1
1615918529486870,8,4,-21,-14,3,11,8,7
1615918529495821,-3,-4,-4,-5,-4,1,7,2
1615918529495821,3,2,-5,6,-3,-3,-3,1
1615918529510806,1,5,4,-3,1,3,8,2
1615918529510806,2,-7,2,-2,-1,1,-8,-2
1615918529510806,1,9,10,12,0,-5,-7,-4
1615918529510806,-9,-10,-1,-11,-3,-3,3,-6
1615918529533720,-1,-4,4,6,3,1,7,3
1615918529533720,-5,-6,-17,-13,-6,-1,-9,-4
1615918529534718,-2,-5,-15,-1,9,-4,4,-1
1615918529534718,0,1,15,-1,4,-4,0,5
1615918529555662,0,-2,17,3,1,3,-2,-2
1615918529555662,-5,-3,-9,-5,-5,3,7,-2
1615918529556659,0,0,14,11,-3,0,-10,-2
1615918529556659,-5,-2,-24,-9,-13,-21,2,-4
1615918529578601,2,-1,-18,-24,-3,8,-2,-3
1615918529578601,6,9,47,29,0,2,11,5
1615918529579598,1,4,-12,-4,-4,-5,6,1
1615918529579598,1,2,-6,-5,-5,-9,-10,-2
1615918529601539,-1,5,-14,1,-2,2,3,-3
1615918529601539,-6,-7,-16,-7,2,-1,-8,-6
1615918529601539,1,-3,-8,-6,-4,2,5,8
1615918529601539,1,4,6,5,0,3,0,1
1615918529623480,0,-6,-18,-8,-6,-1,3,2
1615918529623480,1,8,45,22,18,3,-5,-1
1615918529625475,2,-4,-9,-10,-3,-3,-3,-1
1615918529625475,-7,-8,-39,4,6,4,12,-6
1615918529630461,2,1,11,0,1,-8,-32,-4
1615918529630461,4,2,-4,-1,-5,3,8,3
1615918529631460,-6,-6,-7,0,1,0,3,-3
1615918529631460,1,5,-3,-5,-3,-8,0,1
1615918529653400,0,-3,-19,-8,1,-1,2,-2
1615918529653400,0,1,-12,-7,-3,-2,-11,-4
1615918529654398,-6,-2,-5,0,0,6,3,-3
1615918529654398,0,-4,4,-13,-4,7,-3,3
1615918529676340,-1,8,51,34,8,-3,-8,-4
1615918529676340,-4,-11,-19,-5,-7,-6,0,0
1615918529677337,0,-9,-26,-16,0,4,7,-2
1615918529677337,-3,6,37,18,1,2,-4,-5
1615918529690302,1,-8,-26,-10,-7,-10,9,0
1615918529690302,-2,2,18,3,6,0,-25,-1
1615918529691299,1,1,-4,-1,-7,-8,2,-3
1615918529691299,-1,-2,-2,-1,1,4,3,0
1615918529713240,1,-10,-33,-18,-2,-3,0,5
1615918529713240,-1,1,2,3,-2,-5,0,-3
1615918529714238,3,3,6,3,0,0,-1,1
1615918529714238,0,-2,-2,-2,3,6,-8,-1
1615918529743160,-5,-7,-15,-2,-4,-2,9,-4
1615918529743160,-5,-17,-30,-26,-7,-7,1,-1
1615918529744157,-1,8,38,23,5,1,0,-1
1615918529744157,0,-6,-4,-3,-4,-3,2,0
1615918529750141,3,11,40,17,2,-11,-3,-1
1615918529750141,-1,-1,-29,-17,0,8,-2,0
1615918529751140,-3,-6,-14,-8,-7,1,-7,-3
1615918529751140,-3,-7,-2,1,1,-2,-4,-3
1615918529774077,2,-2,-2,-6,6,6,5,6
1615918529774077,0,3,22,13,-2,-2,0,-4
1615918529774077,-1,6,0,-5,8,2,8,-2
1615918529774077,2,4,4,5,-5,2,-3,2
1615918529796019,-2,3,1,-4,0,3,3,-2
1615918529796019,0,-9,-29,-17,-2,8,4,1
1615918529797017,0,1,7,15,0,-4,-13,-7
1615918529797017,-1,1,6,1,-3,-9,-7,-5
1615918529809982,-3,-3,10,1,-8,10,4,-2
1615918529809982,-1,-1,-29,-6,-6,-13,-2,-2
1615918529810979,-6,-7,-5,-14,-5,-1,4,1
1615918529810979,0,8,6,4,5,-5,6,2
1615918529833918,-5,-7,-2,4,-6,0,-34,-6
1615918529833918,-2,6,-5,2,3,7,2,-3
1615918529833918,2,2,12,-10,-1,4,6,4
1615918529833918,1,2,-2,17,-3,-6,0,1
1615918529855859,0,-2,-20,-14,6,5,7,4
1615918529855859,-6,-12,-16,-8,-8,-11,-1,-5
1615918529856856,-2,1,15,11,6,-3,-7,-5
1615918529856856,2,-6,-34,-22,2,4,2,2
1615918529870820,-2,8,36,20,-1,2,2,-1
1615918529870820,1,-1,0,-7,3,-5,2,4
1615918529870820,-2,-11,-3,10,-6,5,3,-1
1615918529870820,-2,-2,-16,-24,-6,2,-5,0
1615918529900739,2,-1,25,9,12,-2,-1,-3
1615918529900739,1,2,9,2,7,6,2,-3
1615918529901737,4,4,14,6,0,6,-3,1
1615918529901737,-9,-14,1,-2,-1,0,12,-3
1615918529915698,2,-1,-24,-2,-15,-16,-8,4
1615918529915698,-2,5,17,8,6,7,-1,-3
1615918529916696,-1,-1,-3,-4,-2,-7,-8,-4
1615918529916696,4,2,-2,1,2,5,7,-2
1615918529930659,-3,6,-20,-25,-1,1,15,2
1615918529930659,-1,1,41,29,-4,-9,-12,-1
1615918529931656,-1,-8,-30,-15,-4,0,4,-1
1615918529931656,-13,7,14,6,0,7,-11,-9
1615918529953598,-10,-9,-3,-4,-13,6,5,-5
1615918529953598,0,2,-8,-9,7,3,-5,-2
1615918529954596,-2,-7,-22,-2,0,-7,-9,-5
1615918529954596,-4,-4,32,6,-1,-3,-2,2
1615918529976536,-1,3,-6,3,8,11,0,-1
1615918529976536,-1,-4,-18,-4,-4,-4,10,-1
1615918529976536,-7,-1,-1,-14,-10,-7,-11,-4
1615918529976536,7,1,-2,0,1,8,2,4
1615918529990499,6,-1,20,19,3,-6,-3,4
1615918529990499,-5,-3,-19,-11,-2,-3,7,-6
1615918529991497,3,7,20,3,2,0,4,2
1615918529991497,6,2,-14,0,-3,2,-5,4
1615918530013438,1,-1,-20,-8,0,-10,2,-1
1615918530013438,-5,-9,-1,-6,-7,-2,-3,-5
1615918530014435,4,0,-5,2,13,5,2,6
1615918530014435,1,-1,4,2,-6,-5,-3,0
1615918530036377,-6,-9,-16,-9,1,-4,3,-7
1615918530036377,-2,-5,-18,-6,-5,-6,-18,-2
1615918530037375,4,16,35,11,-3,6,9,1
1615918530037375,1,0,4,5,9,4,-3,-4
1615918530050339,-4,-12,-19,-9,-5,-6,3,-3
1615918530050339,0,-1,-25,-30,-7,3,0,2
1615918530051337,-6,-4,25,29,-4,-4,-3,-3
1615918530051337,7,9,23,8,-4,-7,0,5
1615918530073278,-7,-4,11,1,4,6,-9,-8
1615918530073278,3,5,11,4,3,-5,2,8
1615918530074275,1,-15,-39,-23,-9,0,4,5
1615918530074275,-2,5,4,-1,-6,-2,2,-2
1615918530096216,2,1,-6,-5,7,1,0,0
1615918530096216,1,1,9,16,-1,6,4,1
1615918530097214,-4,-5,1,-4,-4,3,12,-1
1615918530097214,-3,-7,-10,-5,-12,-7,-33,-4
1615918530110179,1,-1,-16,-14,-4,5,-6,-2
1615918530110179,4,12,43,14,-4,4,11,6
1615918530111177,-8,-7,-45,-12,-6,-5,-3,-6
1615918530111177,-1,0,22,26,9,6,8,-1
1615918530134116,4,2,1,-12,-7,-14,-5,0
1615918530134116,2,-7,-19,-9,-4,-3,-10,-4
1615918530134116,6,8,-11,-2,3,6,2,2
1615918530134116,-3,-1,-12,-12,-7,-6,2,-4
1615918530156081,-3,0,11,7,-6,-7,-1,-2
1615918530156081,3,0,2,5,-7,-3,7,5
1615918530157078,-3,-3,6,-6,7,-4,-14,-5
1615918530157078,-2,-9,-47,-12,1,5,10,-1
1615918530179025,6,14,54,29,-6,3,-28,1
1615918530179025,2,2,-15,-2,2,-2,6,2
1615918530179025,-2,-2,-30,-14,-9,-6,-6,-2
1615918530179025,-1,1,59,24,5,1,-1,0
1615918530200936,-3,4,4,-6,1,-1,10,0
1615918530200936,-5,-6,-8,2,7,6,-5,-6
1615918530201933,-4,-1,1,-4,-1,-4,-3,0
1615918530201933,0,-8,-31,-23,-2,2,6,-2
1615918530215920,2,13,25,16,6,9,5,5
1615918530215920,-5,-7,-5,-15,-4,-11,-9,-7
1615918530216895,9,6,31,12,1,5,8,5
1615918530216895,-5,-7,-19,-10,-7,-3,-4,-4
1615918530229883,-6,-13,-12,-10,-8,2,19,0
1615918530229883,-2,9,0,15,12,7,-23,-6
1615918530237839,-6,-7,-13,-9,8,-1,0,-3
1615918530237839,4,10,36,21,-6,-23,-10,1
1615918530253831,-2,-4,-17,-2,-6,2,8,0
1615918530253831,0,-6,-7,-4,-3,-3,11,2
1615918530254793,-2,-5,6,6,-4,3,-4,-1
1615918530254793,1,1,-1,-7,-4,-7,-7,-1
1615918530275736,6,-2,-13,-4,1,-12,-1,0
1615918530275736,4,2,-3,-10,-6,1,3,4
1615918530276734,-4,2,16,7,1,2,-5,-3
1615918530276734,-1,-9,-25,-9,-1,7,8,-2
1615918530290697,2,2,6,3,-3,3,0,6
1615918530290697,-7,0,8,2,-2,-2,2,-4
1615918530297678,2,-6,-10,-7,-4,-9,2,1
1615918530297678,-2,2,-1,-5,3,-8,-1,1
1615918530313635,-2,3,-12,-1,9,3,4,-1
1615918530313635,1,1,29,17,-1,5,-2,-1
1615918530314632,0,1,-16,-11,-8,-7,0,3
1615918530314632,-2,0,7,-11,4,4,-1,0
1615918530343555,-4,-3,11,10,-4,-7,-10,-6
1615918530343555,-8,-5,-11,-5,3,2,6,-2
1615918530344553,0,3,21,7,-1,0,-2,-3
1615918530344553,0,3,-5,3,12,8,0,-1
1615918530349539,1,3,22,-4,1,0,5,2
1615918530349539,3,5,14,10,-3,-1,-7,-3
1615918530365640,1,-3,10,1,-1,-4,1,3
1615918530365640,-6,-9,-27,-12,7,-4,-5,-4
1615918530373645,-1,-4,-15,-9,7,9,-2,-3
1615918530373645,-2,-2,4,4,-1,-4,1,-3
1615918530374618,2,0,-20,-7,1,0,-2,-4
1615918530374618,7,9,32,23,-6,1,4,10
1615918530396559,-6,-3,-18,-14,-13,-11,-2,-8
1615918530396559,-3,-4,7,2,8,6,-10,-2
1615918530396559,4,-6,1,-5,1,2,6,-1
1615918530396559,0,3,-17,-7,-3,9,6,2
1615918530409557,1,5,9,10,0,-9,-6,1
1615918530409557,-1,-8,-29,-19,-9,-2,4,0
1615918530417527,1,5,32,18,13,3,-3,1
1615918530417527,-7,3,-14,-7,-3,3,-3,-5
1615918530433485,-5,-5,24,2,6,9,-2,-2
1615918530433485,1,-5,-45,-29,7,-12,-2,2
1615918530434459,1,6,31,12,1,2,-3,-1
1615918530434459,2,-3,13,12,2,3,1,1
1615918530455767,-1,1,-3,-5,2,-2,0,1
1615918530455767,0,1,-1,4,-5,-2,0,-3
1615918530456739,-7,-11,-9,-10,-7,-3,3,-3
1615918530456739,4,4,-18,-14,1,4,2,3
1615918530469435,2,-4,8,16,-1,3,3,3
1615918530469435,-3,4,15,7,3,-12,-13,-7
1615918530478466,-1,5,-13,-4,-4,1,-7,-1
1615918530478466,-1,-8,-14,-10,-11,-7,0,-1
1615918530493783,3,7,0,4,11,4,-4,-1
1615918530493783,-2,-4,0,0,-9,-3,-3,-2
1615918530494781,3,2,-9,-5,0,1,-3,0
1615918530494781,-5,-4,0,9,3,3,3,-1
1615918530515725,3,-3,-40,-22,-12,-6,-9,-1
1615918530515725,0,0,35,22,-1,-4,0,-1
1615918530516722,-4,3,3,2,-2,4,7,1
1615918530516722,-3,-9,-17,-13,-4,-1,-2,-3
1615918530538663,2,3,-14,-15,-2,0,3,2
1615918530538663,-2,-1,1,6,-5,2,3,-3
1615918530539660,-5,-7,-18,-4,-6,-8,-9,-6
1615918530539660,0,-3,0,-2,6,-1,-1,-1
1615918530552650,-3,3,38,16,-8,-4,6,-4
1615918530552650,3,-1,-24,-17,7,6,6,7
1615918530553647,3,3,15,4,-5,-10,1,1
1615918530553647,0,-7,-9,-7,-5,-3,12,3
1615918530575733,0,-6,-24,1,6,7,-9,-1
1615918530575733,3,4,41,1,-6,2,3,2
1615918530576731,1,9,8,15,2,3,-5,-2
1615918530576731,1,-1,7,15,-1,-2,-1,-1
1615918530598672,-6,-8,-12,-12,-9,-9,-2,-4
1615918530598672,1,0,-2,-2,4,2,3,3
1615918530599669,-7,-12,-26,-17,-2,3,-1,-3
1615918530599669,-2,-2,-9,-7,-3,-3,-13,-3
1615918530612633,1,0,13,13,0,-1,-3,0
1615918530612633,-10,1,17,3,-6,-4,-4,-5
1615918530613607,-1,-4,-5,-5,-2,-2,1,1
1615918530613607,-5,7,-3,-4,-8,-3,-6,-6
1615918530643527,-2,-6,1,2,11,9,2,0
1615918530643527,4,-4,-31,-17,-5,3,9,6
1615918530644525,0,4,34,15,1,-2,-3,0
1615918530644525,-6,-7,-17,-38,1,-13,-4,-8
1615918530659485,1,3,45,38,-5,-3,8,1
1615918530659485,0,4,18,13,2,0,-31,-5
1615918530659485,-3,-1,-27,-14,7,-9,1,1
1615918530659485,2,4,16,1,2,3,-1,2
1615918530672474,-10,-9,-26,-18,-4,-8,-3,-6
1615918530672474,-3,-9,14,2,6,9,3,-4
1615918530673489,4,0,-10,-1,-5,-1,3,2
1615918530673489,-6,-2,10,9,-1,4,3,-5
1615918530696411,-3,-7,-25,-11,-1,-1,-7,-2
1615918530696411,-2,-3,-14,-6,-5,0,2,1
1615918530697409,-2,-5,-18,-15,-3,2,-6,-6
1615918530697409,-1,7,59,36,0,-6,-1,0
1615918530718352,-1,-2,-22,-5,-2,3,-5,-2
1615918530718352,0,-3,-4,5,-5,3,6,3
1615918530719325,-4,4,-2,-8,-4,-4,9,-3
1615918530719325,5,-5,-22,-9,-5,-13,-4,7
1615918530733311,-4,-4,11,-2,5,-4,-6,-5
1615918530733311,7,2,-30,-15,1,-1,4,2
1615918530734285,-1,-6,11,15,-8,3,6,1
1615918530734285,-7,-9,5,2,0,5,1,-5
1615918530756225,5,6,-13,-15,-3,5,0,4
1615918530756225,-2,-4,-13,-1,2,-8,-2,-2
1615918530757223,-6,-3,9,5,2,7,5,-1
1615918530757223,4,-1,14,-8,-2,3,2,4
1615918530778191,-2,-7,29,21,-2,-7,4,0
1615918530778191,0,11,6,-5,-4,-1,-19,-3
1615918530779188,-1,-5,-17,-7,-4,-4,-5,-1
1615918530779188,0,1,-26,-11,10,-2,-3,-5
1615918530793151,2,5,5,1,1,0,3,0
1615918530793151,-1,2,24,0,-5,-5,10,0
1615918530794150,-4,-9,16,10,4,-6,-11,-4
1615918530794150,3,-2,-4,8,-1,-1,-1,0
1615918530816065,2,1,-23,-19,-12,-8,9,3
1615918530816065,5,7,10,9,6,1,-2,3
1615918530817063,1,-1,-14,-12,-8,-5,-1,3
1615918530817063,-2,-7,8,2,8,15,2,1
1615918530839026,-5,8,-6,-6,-3,-7,1,-7
1615918530839026,-6,-4,17,10,-2,4,-1,-5
1615918530839026,3,1,3,4,-2,-7,-25,-2
1615918530839026,2,3,-6,0,-4,-6,6,4
1615918530852992,4,1,-11,-8,2,8,10,4
1615918530852992,-4,-11,-34,-4,-1,-5,-3,-2
1615918530853965,1,11,11,6,-4,4,4,-1
1615918530853965,-6,-5,-17,-10,0,-3,-7,-5
1615918530875929,0,-3,-10,-1,-1,2,-6,-1
1615918530875929,-2,1,5,14,3,-6,7,0
1615918530876904,-1,-8,-11,-9,7,4,-1,0
1615918530876904,0,5,-2,1,-8,-9,-5,-4
1615918530898873,-2,-6,-18,-15,9,8,0,-2
1615918530898873,2,-2,16,13,-2,-4,2,0
1615918530899842,1,9,-9,-7,-3,-4,0,-1
1615918530899842,4,3,0,-1,1,4,0,5
1615918530912831,-8,-19,-14,-5,-5,-5,-7,-4
1615918530912831,1,7,16,1,-2,-8,-1,1
1615918530913805,-7,-14,-27,-4,4,9,-1,-6
1615918530913805,-2,2,9,12,13,10,0,-5
1615918530935770,-1,-1,1,-9,-9,-3,0,-1
1615918530935770,1,-2,-21,-9,-6,-1,6,1
1615918530936771,-3,-5,-5,-2,-7,-3,-3,0
1615918530936771,3,4,-5,-3,1,-8,6,0
1615918530958723,0,-4,4,0,-3,0,-30,-2
1615918530958723,-10,0,-8,2,8,12,4,-9
1615918530958723,-2,-3,16,4,2,-14,1,1
1615918530958723,-3,-8,-39,-21,-6,6,-3,3
1615918530973231,1,4,41,27,12,2,3,-1
1615918530973231,1,-2,0,-7,-5,-2,-3,0
1615918530974204,0,1,-7,-15,-1,-1,-2,-3
1615918530974204,2,3,29,18,-12,-8,0,2
1615918530996170,1,-4,-26,-4,1,8,7,2
1615918530996170,-4,-7,-30,-17,-4,-12,1,-2
1615918530998165,0,2,30,10,4,-6,-32,-4
1615918530998165,-2,-4,-4,-8,-6,-4,5,2
1615918531019113,4,8,13,-2,-3,0,2,3
1615918531019113,1,-1,-3,8,2,2,5,-3
1615918531020082,4,4,18,10,-13,1,13,7
1615918531020082,-4,-4,-23,-21,-3,-13,-10,-7
1615918531032073,-5,9,24,26,-3,-4,0,-3
1615918531032073,1,2,-20,-16,4,8,-4,-1
1615918531041026,-4,-11,-21,-10,-4,-3,7,-1
1615918531041026,-5,-8,-5,-9,0,1,-5,-6
1615918531055986,1,-1,31,15,3,-4,3,1
1615918531055986,2,-4,-10,-11,-17,0,0,1
1615918531057981,-1,15,17,4,9,5,4,-2
1615918531057981,0,-9,-17,-6,-3,3,7,1
1615918531078949,-3,3,3,3,-1,-6,-4,-3
1615918531078949,-1,-6,2,5,-1,3,6,1
1615918531079926,-1,1,-11,-16,-3,-9,-33,-3
1615918531079926,4,2,20,19,6,-7,1,2
1615918531091915,1,6,-18,-21,-7,-5,1,1
1615918531091915,-2,0,27,12,2,4,-5,1
1615918531100890,0,-5,-24,-7,-1,-2,14,3
1615918531100890,-5,5,8,3,1,1,-7,-6
1615918531116847,5,-5,-16,-9,-4,4,0,4
1615918531116847,2,9,10,3,9,1,-6,3
1615918531118818,-3,-4,-29,-16,-2,-2,6,-3
1615918531118818,3,10,43,26,-6,1,-3,3
1615918531138766,-10,-5,-3,-11,17,-1,2,-6
1615918531138766,-1,-2,-27,-6,-1,-1,-3,-2
1615918531139762,0,-3,18,15,-1,6,3,-2
1615918531139762,1,9,4,2,0,0,-3,-2
1615918531152719,0,-9,-39,-19,-6,-10,1,2
1615918531152719,0,-3,-2,0,0,-4,-3,0
1615918531161699,0,2,43,9,1,6,6,3
1615918531161699,-2,-11,-8,4,4,4,2,0
1615918531176659,-2,-1,-16,-5,-5,2,11,-3
1615918531176659,3,5,17,8,-9,-11,-30,-4
1615918531177655,-5,-1,-2,3,-2,7,7,-1
1615918531177655,-2,1,6,-6,-4,-8,-2,-2
1615918531199129,-3,-3,-6,-14,-2,0,1,-2
1615918531199129,4,5,16,10,-5,-1,7,-1
1615918531199970,0,-3,-8,2,6,13,8,5
1615918531199970,-3,-1,-1,-7,-6,-1,-11,-5
1615918531212734,-2,-2,1,0,0,-6,-7,-3
1615918531212734,-6,-8,-12,-9,19,6,-3,-7
1615918531221679,4,9,26,16,-1,-14,-2,1
1615918531221679,-1,0,-3,0,-4,2,2,0
1615918531235641,3,2,-4,2,0,-5,-6,-1
1615918531235641,-1,-1,-7,-10,-5,-2,9,-2
1615918531242623,-1,0,-16,-9,-7,-3,-19,-5
1615918531242623,1,-1,-8,2,19,9,0,1
1615918531266558,-4,-6,19,8,-9,-6,-1,-2
1615918531266558,-3,-5,-10,-7,-8,-6,9,3
1615918531267555,0,3,7,-1,1,1,6,-1
1615918531267555,1,-2,-7,0,-14,-1,1,3
1615918531272542,1,-3,8,12,8,11,-7,-1
1615918531272542,6,10,-1,-7,2,-5,1,3
1615918531281545,-3,-13,-43,-20,6,-5,1,-1
1615918531281545,-7,1,46,28,-7,0,-2,-5
1615918531296492,-2,0,-23,-19,-8,1,0,-2
1615918531296492,0,6,14,1,-5,5,1,1
1615918531297500,-3,-5,-14,9,-1,0,4,-4
1615918531297500,-2,-7,-28,-21,0,-10,-12,-4
1615918531318443,-2,-1,-4,-11,0,-5,-9,-5
1615918531318443,-3,-10,20,18,-9,-9,-5,-3
1615918531320414,2,4,-3,-13,-1,7,-4,-1
1615918531320414,-1,-1,-8,-2,15,0,4,0
1615918531332411,1,-5,2,3,-11,8,9,6
1615918531332411,-9,-16,-26,-16,-15,-13,-7,-4
1615918531341358,3,9,15,8,2,2,12,2
1615918531341358,2,5,-3,-3,1,-12,-7,-1
1615918531355345,3,4,24,16,-1,3,-7,0
1615918531355345,-6,-5,-5,-10,1,9,0,-3
1615918531362326,4,2,6,10,-5,-5,-1,5
1615918531362326,-1,-6,-26,-12,-11,-4,12,-1
1615918531386262,-2,6,13,1,14,1,-25,0
1615918531386262,0,-2,-2,0,-1,0,10,2
1615918531388235,-5,-2,-4,3,8,8,-4,-7
1615918531388235,6,-4,-44,-26,-8,4,16,11
1615918531392222,-6,-10,41,16,6,-4,3,-4
1615918531392222,-5,0,-2,2,-1,5,-7,-9
1615918531401198,0,-4,-13,-10,9,7,-2,0
1615918531401198,-7,-8,1,3,-5,-11,3,-2
1615918531416182,-2,-2,-16,-5,-5,-5,3,0
1615918531416182,-2,0,4,-5,-1,-2,-7,-2
1615918531418152,6,2,31,15,-5,0,2,3
1615918531418152,-1,3,8,1,5,11,0,-3
1615918531438100,5,1,-20,-4,-9,-13,3,3
1615918531438100,-1,-3,-1,6,27,-7,-5,-4
1615918531446088,1,-3,-3,-3,-14,-6,8,-2
1615918531446088,-1,7,10,5,-2,-8,-26,-6
1615918531461063,-4,3,-4,-6,2,7,6,-2
1615918531461063,6,-2,-18,-7,-4,-6,1,4
1615918531463057,1,5,50,16,-1,-4,4,-1
1615918531463057,-2,-8,-16,-5,10,8,1,0
1615918531475998,-1,3,-2,-6,-1,4,9,3
1615918531475998,-4,-3,-22,-4,4,5,0,1
1615918531482006,-2,3,9,-9,-3,-4,-11,-1
1615918531482006,-5,-1,42,22,6,-7,-4,-7
