timestamp,emg1,emg2,emg3,emg4,emg5,emg6,emg7,emg8
1615918510879826,-2,-2,-13,-10,-1,1,-7,-3
1615918510879826,-4,-3,-4,6,-2,-5,6,-2
1615918510886805,1,0,13,-2,0,-4,-5,-1
1615918510886805,-2,-5,-28,-22,0,3,-1,0
1615918510902854,3,2,34,33,2,5,1,2
1615918510902854,-3,0,-8,1,-2,-6,-1,-4
1615918510904845,1,-2,-10,-13,-2,1,14,3
1615918510904845,-1,-2,-5,3,1,-2,-8,-1
1615918510925380,-3,-7,-21,-22,-3,-4,-7,-3
1615918510925380,1,6,28,19,-2,0,2,-1
1615918510927400,3,1,-2,-3,2,1,-1,-1
1615918510927400,-3,-3,0,0,-2,0,-6,-4
1615918510939366,1,-1,-2,-1,-1,-5,6,4
1615918510939366,-2,-8,-22,-14,-1,-1,-12,-3
1615918510946324,-2,1,5,13,2,6,11,0
1615918510946324,0,1,12,-2,-2,-7,-19,-2
1615918510963278,-3,-4,-26,-12,-2,1,-1,-4
1615918510963278,1,0,15,6,2,0,8,3
1615918510964276,-1,0,-18,5,-3,1,3,0
1615918510964276,1,-1,-2,5,1,4,6,0
1615918510985297,1,3,13,1,-1,-4,-6,-2
1615918510985297,-3,-2,-11,-3,-1,-2,1,-4
1615918510987289,-6,-8,-19,-3,-6,-1,-9,-4
1615918510987289,2,5,23,-2,-2,-8,4,2
1615918510999257,-3,-1,-4,2,-3,-14,-10,-3
1615918510999257,-1,0,8,-5,0,6,1,-1
1615918511008209,0,-2,-11,-3,-1,3,-3,0
1615918511008209,-2,-1,8,2,-2,2,3,-4
1615918511023192,0,-4,-25,-9,-3,3,11,-2
1615918511023192,-1,-2,5,0,-3,-4,-21,-2
1615918511024195,0,1,6,10,2,-4,0,-2
1615918511024195,0,-1,-3,-5,0,-2,-3,-2
1615918511045110,-3,-4,-23,-3,-1,1,6,-2
1615918511045110,-1,-1,15,-6,-2,-4,-5,-1
1615918511047106,-1,-2,-9,-16,0,-3,-3,-1
1615918511047106,-1,-1,9,13,-1,6,4,1
1615918511059074,0,3,-1,2,0,4,1,2
1615918511059074,-3,-1,-9,-8,-5,-7,0,-4
1615918511068049,0,-1,16,15,-1,-2,-6,0
1615918511068049,-1,2,-1,-14,0,2,5,-1
1615918511083033,-4,-7,-18,-17,3,0,-5,-1
1615918511083033,2,2,-4,2,0,2,5,0
1615918511085022,1,10,69,26,3,0,7,1
1615918511085022,0,-5,-27,-14,-3,-3,-15,-1
1615918511104978,-1,-1,0,4,0,-2,-5,-3
1615918511104978,0,1,10,0,1,4,3,0
1615918511106945,-4,-4,-21,-17,-4,-1,6,0
1615918511106945,0,1,17,7,-1,-4,2,0
1615918511118941,1,3,13,20,3,-2,-6,0
1615918511118941,1,-4,-15,-12,-2,1,1,-1
1615918511127889,-1,1,3,8,1,-2,-8,-4
1615918511127889,-1,1,1,-7,1,3,4,1
1615918511143871,1,4,24,10,-1,-2,3,1
1615918511143871,-4,-6,-12,15,-3,1,3,-2
1615918511144873,3,2,7,-12,-2,-7,-14,-1
1615918511144873,-3,-6,-26,-10,1,-2,-3,-5
1615918511165811,-3,-2,1,-5,-3,2,8,1
1615918511165811,1,6,20,20,3,0,-1,0
1615918511166786,-2,-5,-16,-12,-2,-2,3,2
1615918511166786,-1,-4,-8,-17,-3,-2,-3,-1
1615918511178776,1,7,25,33,5,2,-2,1
1615918511178776,-1,0,0,5,-1,-1,2,-2
1615918511187741,1,-1,5,-8,-3,1,0,1
1615918511187741,-1,2,18,23,1,0,1,0
1615918511202713,-3,-4,-5,-14,-4,-3,-2,-1
1615918511202713,-2,-6,-25,-18,-1,-4,-3,0
1615918511204684,-1,0,-10,-4,1,-1,2,-1
1615918511204684,0,0,2,1,2,3,-2,-3
1615918511225628,-1,-2,-10,-13,-8,0,5,-2
1615918511225628,0,4,21,7,-2,-16,-23,-1
1615918511226650,-2,-5,-27,-21,-5,-3,-3,-3
1615918511226650,-1,3,14,19,2,1,2,-1
1615918511238616,0,-4,-8,-25,-2,-1,4,0
1615918511238616,1,2,36,32,4,5,9,2
1615918511247569,-1,1,7,25,-1,-4,-3,-1
1615918511247569,-4,-2,-3,-6,-4,-9,-13,-3
1615918511263550,-2,-2,-14,-10,1,1,1,-4
1615918511263550,-1,-1,4,-16,0,3,4,0
1615918511264552,0,-2,-11,-5,0,-2,1,0
1615918511264552,2,3,14,13,-1,2,9,0
1615918511285492,1,2,-7,-1,2,-1,-7,-2
1615918511285492,-1,-5,-26,-22,0,4,6,0
1615918511287484,-3,-3,2,9,-3,1,-2,-2
1615918511287484,1,1,22,21,-1,-8,0,4
1615918511307409,-3,-2,-11,-4,-1,1,-1,-2
1615918511307409,0,-1,-18,-8,-3,-2,-6,1
1615918511309405,-1,3,10,-8,1,-3,3,0
1615918511309405,-1,-2,-7,-5,-2,4,4,0
1615918511322394,-1,-1,9,5,0,5,-3,1
1615918511322394,-2,0,-18,-8,-3,-10,12,-3
1615918511324364,-2,-1,4,1,-2,2,-17,-2
1615918511324364,-2,-3,-8,-7,-2,-1,0,-2
1615918511345308,2,-1,0,-4,0,-5,-8,1
1615918511345308,-2,-5,-24,-26,-1,4,4,-1
1615918511347303,0,1,28,31,3,1,8,1
1615918511347303,-2,2,3,-21,0,0,-2,-1
1615918511359272,-2,-2,2,8,-6,-3,-1,-2
1615918511359272,-1,-3,-5,-6,-4,-1,-6,-2
1615918511368247,0,-1,-18,-19,-3,-5,0,0
1615918511368247,0,-2,7,9,0,4,4,1
1615918511383235,-1,-1,-2,-2,-1,1,-6,1
1615918511383235,-1,-4,-2,-6,-1,-1,-1,-1
1615918511384229,0,-2,-6,-6,-4,-5,0,-2
1615918511384229,-3,-1,-16,-3,0,1,-1,-1
1615918511405172,1,-1,2,-24,-2,-4,4,2
1615918511405172,-2,2,24,74,0,-2,-10,-3
1615918511407143,-2,-2,-15,-30,0,7,2,0
1615918511407143,0,-2,-14,-13,-1,-3,3,1
1615918511419137,-2,-1,-5,-1,1,0,-4,-1
1615918511419137,-3,-3,-8,-14,-1,2,5,1
1615918511428086,-3,-2,-5,3,0,-6,-5,-2
1615918511428086,-1,-3,-1,5,-4,-1,-3,-1
1615918511442050,-4,-1,-3,-6,-1,-3,-5,-2
1615918511442050,0,3,13,3,0,4,5,2
1615918511449068,-3,-4,-23,-6,1,5,1,-3
1615918511449068,0,1,-1,-8,1,-4,-6,0
1615918511464987,-3,-1,16,37,-3,-7,1,-4
1615918511464987,-1,-2,-4,-17,-2,-1,-3,-2
1615918511466982,-2,-1,4,-1,1,2,2,0
1615918511466982,0,-1,-17,-16,1,7,0,0
1615918511478975,0,1,1,1,0,-4,-3,0
1615918511478975,-1,2,13,8,0,0,1,0
1615918511495861,-1,-2,-15,-1,-1,-1,3,-1
1615918511495861,0,-4,-18,-13,-3,-5,-2,-2
1615918511502865,0,3,21,12,2,1,1,0
1615918511502865,-2,-4,-21,-26,-2,2,-1,-1
1615918511504862,-2,-3,23,5,-1,-10,0,-1
1615918511504862,-2,-3,5,19,0,-3,1,-4
1615918511525781,-1,1,10,-6,-1,0,3,0
1615918511525781,1,2,-1,-4,1,-1,-16,-2
1615918511526778,1,1,13,-4,4,1,10,3
1615918511526778,1,-1,1,14,1,3,1,2
1615918511547644,-3,-5,-16,-19,-2,0,-1,-2
1615918511547644,-1,-3,-6,6,3,-1,2,-1
1615918511549640,-1,2,16,-1,-6,-3,-6,-4
1615918511549640,-1,2,19,22,-1,-2,2,-3
1615918511562632,-1,-3,-10,0,0,5,-6,0
1615918511562632,0,-1,-11,-11,-4,-19,-6,-2
1615918511564599,1,-2,-8,4,2,4,-1,1
1615918511564599,-3,-2,-10,-9,-4,-1,-3,-3
1615918511585568,0,-1,-1,8,0,5,5,-1
1615918511585568,-1,-2,-5,-7,0,-2,-9,-1
1615918511586569,1,2,10,7,1,3,6,3
1615918511586569,0,3,15,4,-2,-11,-2,0
1615918511607509,-2,-3,-27,-19,-2,1,-5,-4
1615918511607509,-2,-4,-10,11,-1,2,7,-2
1615918511609480,0,2,9,-2,0,4,-3,-2
1615918511609480,-1,-1,-3,0,0,0,-7,-1
1615918511622469,0,2,23,21,1,-2,2,0
1615918511622469,1,0,-16,-22,-2,0,-1,1
1615918511629450,-2,-2,20,23,-2,-2,1,-2
1615918511629450,1,-4,-14,-22,1,-3,4,-1
1615918511645383,0,-3,-9,2,-4,-2,-4,-1
1615918511645383,-2,0,6,-9,-4,0,1,-4
1615918511647378,1,6,15,6,4,1,2,-1
1615918511647378,-2,-6,-19,-23,0,0,-14,-2
1615918511668348,-1,6,45,44,3,-2,-4,-1
1615918511668348,0,-1,-6,-11,-2,1,5,1
1615918511669319,0,-1,2,0,-3,2,0,-2
1615918511669319,-1,-2,-9,-23,-3,-12,1,-1
1615918511682312,-1,-4,1,15,-1,0,-3,-2
1615918511682312,-1,-3,-2,-4,1,3,6,1
1615918511689290,-1,-2,-15,-12,-1,-3,-2,1
1615918511689290,-5,-2,17,15,0,-1,-9,-4
1615918511705248,-1,1,10,-16,-1,-5,-2,0
1615918511705248,-2,-2,-7,7,-2,2,0,-3
1615918511707218,1,-1,-19,4,0,1,-3,-2
1615918511707218,-1,-2,-13,9,-2,4,1,-1
1615918511728186,0,0,3,-7,-4,-9,6,-2
1615918511728186,-3,-1,5,6,-3,1,-4,-2
1615918511729186,-3,-1,-13,-15,-5,-5,-11,-2
1615918511729186,0,0,3,-5,-3,1,6,-1
1615918511742154,1,-1,-3,8,0,4,0,1
1615918511742154,0,-1,-5,-2,2,-1,4,-1
1615918511750103,0,0,16,2,1,-1,-2,0
1615918511750103,0,0,12,8,-1,-1,-2,-1
1615918511765087,0,-7,-47,-39,-2,5,3,0
1615918511765087,2,9,62,40,2,-5,-5,3
1615918511767058,-4,-7,-23,-7,-4,-13,-6,-5
1615918511767058,-1,-2,-1,8,-1,3,-3,0
1615918511788017,2,3,-13,-11,1,4,1,2
1615918511788017,1,-4,-28,-29,2,4,4,2
1615918511789997,-3,2,16,31,-2,-1,-1,-2
1615918511789997,-4,-2,-12,-16,-2,0,7,-1
1615918511801994,-1,-3,-20,-24,-2,-7,-10,-2
1615918511801994,2,6,59,32,0,-3,-4,-3
1615918511808947,-1,-3,-13,-16,-3,-4,7,1
1615918511808947,0,-2,-20,-12,-2,2,2,0
1615918511832906,-3,-2,16,18,-1,4,-3,-2
1615918511832906,0,0,-3,4,-4,-3,-1,0
1615918511834876,-5,-5,-18,-18,-1,-3,-5,-5
1615918511834876,0,1,-5,-7,-1,1,-4,-1
1615918511847866,-1,-2,2,-2,0,-1,-3,-1
1615918511847866,-2,-1,4,-3,1,-1,-2,-2
1615918511849861,1,-4,-11,2,1,6,0,3
1615918511849861,-1,1,2,-1,-7,-5,6,2
1615918511861828,2,4,18,3,2,2,-10,-1
1615918511861828,-3,-3,-25,-8,-3,-8,0,-4
1615918511868791,-2,-1,15,17,1,4,-5,-3
1615918511868791,1,-2,-11,-5,0,-7,-5,-2
1615918511885771,1,2,15,13,1,-2,10,2
1615918511885771,-1,-4,-14,-16,-2,3,-3,0
1615918511886771,0,-4,-9,-10,-1,-6,-7,-2
1615918511886771,-2,2,13,17,0,1,2,0
1615918511907688,-1,-5,-15,-17,-3,-1,-7,-3
1615918511907688,0,1,19,18,-2,-2,-1,0
1615918511909683,0,-2,-30,-30,-3,-2,3,0
1615918511909683,-1,-1,25,25,0,-1,-1,0
1615918511922648,-2,-1,-19,-10,-1,-6,-1,-4
1615918511922648,0,2,5,8,-1,3,-3,-3
1615918511928632,1,-1,-9,-7,-3,-5,2,0
1615918511928632,1,2,17,4,0,4,1,0
1615918511945587,-1,-3,-14,-3,-4,1,4,1
1615918511945587,0,3,24,9,-2,-1,0,0
1615918511946585,-2,-3,-12,-18,-1,2,-6,-1
1615918511946585,0,-3,-4,-6,1,0,0,-1
1615918511967528,0,1,3,12,-2,-5,2,-1
1615918511967528,-3,-4,-9,8,0,6,-6,-2
1615918511969523,0,0,-3,-15,-2,-3,3,-1
1615918511969523,-1,-2,-7,3,-1,4,-1,0
1615918511982488,-2,-2,-1,-8,-2,-2,9,-1
1615918511982488,0,0,7,-6,-1,-15,-27,-4
1615918511989469,-1,-2,-5,11,-1,4,4,-4
1615918511989469,1,4,3,-5,2,1,1,1
1615918512005427,1,1,-5,6,2,-5,4,1
1615918512005427,-2,-4,-19,-9,0,7,10,0
1615918512007422,0,-2,1,16,1,1,-4,1
1615918512007422,0,-4,-22,-40,-5,-2,-5,-2
1615918512028365,-1,2,35,34,-1,-1,-10,-1
1615918512028365,0,4,11,12,-1,0,6,1
1615918512029363,-3,-4,-20,-20,-3,0,-2,0
1615918512029363,-3,-3,-6,7,-3,2,2,-3
1615918512050307,2,3,18,-4,2,-1,-6,-2
1615918512050307,0,-2,-25,-18,-4,-1,5,2
1615918512052302,-2,0,-6,-6,0,1,7,-2
1615918512052302,1,1,27,37,2,-2,-7,-4
1615918512065267,-3,-5,-25,-3,-8,-5,-3,0
1615918512065267,-1,-2,6,4,3,2,3,-2
1615918512067262,2,2,-3,-17,-3,-2,1,2
1615918512067262,0,1,13,19,2,4,7,0
1615918512088206,0,0,-14,-19,0,-6,-13,-3
1615918512088206,0,-1,-11,0,1,0,3,0
1615918512090201,0,-1,11,6,-2,-3,-4,1
1615918512090201,-3,-2,-9,-11,-2,-3,-6,-3
1615918512101171,-1,-1,13,2,1,7,15,2
1615918512101171,-3,-2,-25,-20,-4,-5,-29,-3
1615918512118126,2,3,16,25,2,-5,-2,2
1615918512118126,0,-1,0,-1,-4,0,-2,0
1615918512125108,-3,-2,-17,-3,-1,1,4,0
1615918512125108,-2,0,11,9,-1,2,8,1
1615918512127101,-2,-1,-6,-10,-1,-3,-5,-4
1615918512127101,-2,-2,-15,-18,0,-2,-2,0
1615918512148046,-3,-2,5,-1,-3,1,-5,-1
1615918512148046,0,-4,-14,-8,0,-5,4,-2
1615918512150041,-3,3,18,8,-1,0,-3,-3
1615918512150041,-1,1,-3,-14,-1,3,6,-1
1615918512162009,-1,-3,-2,-9,-2,-1,-7,-2
1615918512162009,1,3,36,32,0,-7,-1,0
1615918512170323,-3,-2,-18,-22,-5,1,6,-5
1615918512170323,-2,-3,0,12,-3,-4,-10,-1
1615918512185698,-2,0,-6,-16,-1,2,0,-2
1615918512185698,0,1,3,9,3,6,7,2
1615918512186696,1,1,11,10,-1,-2,-1,1
1615918512186696,-1,1,10,1,-2,0,3,-2
1615918512207639,-1,-3,-1,-4,-3,-3,-3,0
1615918512207639,-2,-4,-18,-9,-3,3,2,-1
1615918512209635,-3,-2,-11,-21,-1,0,-1,0
1615918512209635,0,2,14,6,0,-1,-2,0
1615918512222125,0,5,17,14,3,-1,-2,-3
1615918512222125,-2,-4,-23,-10,-2,-1,5,-2
1615918512230730,1,2,29,15,1,-1,-1,0
1615918512230730,-1,-5,-18,-18,-2,-4,-5,-1
1615918512245660,-2,-1,3,4,-3,-5,-1,-2
1615918512245660,2,1,-13,-5,0,-1,0,-1
1615918512246685,-1,-3,-4,5,-1,-3,0,-1
1615918512246685,1,0,-7,-2,3,1,1,1
1615918512267617,-1,0,5,1,0,1,5,-1
1615918512267617,-2,-1,1,-6,-1,0,1,0
1615918512269596,-3,-4,-4,-8,-1,-1,-3,-1
1615918512269596,-1,0,-7,10,2,-1,-3,0
1615918512281588,0,-2,-11,3,0,1,-1,1
1615918512281588,-2,-3,-3,-14,-3,-6,-7,-3
1615918512290539,1,3,28,18,0,0,-1,0
1615918512290539,-2,-5,-15,-14,-1,-4,1,-2
1615918512305523,-1,-3,-6,11,0,1,0,-2
1615918512305523,2,1,8,-2,-1,-1,7,5
1615918512307518,1,2,8,9,0,-3,-28,-2
1615918512307518,-2,-5,-25,-30,-4,0,6,-4
1615918512327468,2,4,31,27,2,3,0,2
1615918512327468,-5,-8,-18,-15,-5,-9,-5,-4
1615918512329438,-4,-3,-24,-7,-1,4,4,-1
1615918512329438,0,3,22,19,0,-7,-8,-3
1615918512350082,0,-1,-2,-11,-3,-1,-5,-2
1615918512350082,2,2,8,10,-2,-3,4,0
1615918512352053,1,-3,-25,-26,-1,1,2,-1
1615918512352053,0,-1,23,18,0,0,6,0
1615918512372996,-3,-1,4,1,-2,-6,-14,-4
1615918512372996,-1,2,11,7,1,2,-1,-1
1615918512374993,0,-4,-20,-17,-3,-1,6,0
1615918512374993,0,3,0,11,-1,1,-3,2
1615918512394962,0,1,3,-4,1,-2,5,-3
1615918512394962,1,-1,-5,-4,2,3,1,3
1615918512396932,-1,-1,8,12,-6,-4,-6,-1
1615918512396932,-1,-1,-2,-8,-4,-2,-1,-1
1615918512401918,0,-5,-16,-10,1,0,0,2
1615918512401918,-2,-5,-20,-16,-2,2,-3,-3
1615918512416905,-3,0,12,-6,1,-1,5,1
1615918512416905,3,5,28,30,0,0,0,4
1615918512425855,1,-1,-14,-16,-5,-5,-2,0
1615918512425855,-2,-2,-9,9,1,1,-3,-2
1615918512426852,-2,-6,-9,-6,-1,1,8,1
1615918512426852,-1,-1,12,-8,-2,-5,-24,-4
1615918512447820,-2,-2,3,12,-2,-2,0,-1
1615918512447820,0,5,25,10,1,-2,5,0
1615918512449792,0,1,-8,-1,-1,-4,2,-1
1615918512449792,-3,-7,-19,-10,-1,-1,3,-5
1615918512470759,0,-6,-29,-33,-3,2,5,0
1615918512470759,-1,0,23,21,-1,0,-6,-3
1615918512471733,0,0,4,18,2,3,-2,0
1615918512471733,-1,0,-14,-9,-4,-2,3,0
1615918512485718,0,1,-9,-8,3,4,4,0
1615918512485718,-3,-4,-16,-1,-3,0,-4,-2
1615918512486708,2,0,-1,8,1,-5,-3,0
1615918512486708,0,-2,-1,-5,-2,-3,4,-1
1615918512507636,-1,5,9,10,3,3,11,1
1615918512507636,-2,1,-3,-16,-2,-5,-25,-3
1615918512509631,-2,-3,-9,-3,0,1,0,-1
1615918512509631,-2,-2,-4,-18,1,1,3,1
1615918512530575,-3,-2,12,35,0,-1,-2,0
1615918512530575,-3,-2,-18,-28,-4,0,0,-2
1615918512532570,2,7,41,2,0,0,2,0
1615918512532570,-1,1,5,23,-2,-5,-1,0
1615918512545535,-1,0,0,-9,0,-2,-6,0
1615918512545535,1,-1,-4,0,2,2,6,0
1615918512547529,-2,-4,-13,8,-2,3,-5,-1
1615918512547529,-1,0,8,0,0,-3,3,-2
1615918512567476,-1,0,6,1,-4,-4,-10,0
1615918512567476,-3,-4,-8,-2,-2,-5,1,-2
1615918512569472,-1,-1,-2,-6,-2,4,6,-1
1615918512569472,-1,-2,1,1,-2,-2,-28,-4
1615918512590438,-1,0,-11,2,-2,-2,-3,-3
1615918512590438,-1,-5,-16,-15,-2,-1,6,-1
1615918512593431,0,4,18,18,-3,-5,4,1
1615918512593431,-3,-4,-22,-3,-1,1,6,0
1615918512604402,-2,-6,-13,-21,2,2,-4,-2
1615918512604402,1,3,20,21,-1,1,0,-1
1615918512612067,-3,-5,-20,-18,-1,-6,-1,-5
1615918512612067,2,4,2,8,-4,3,7,4
1615918512627690,1,-4,-14,-16,0,1,-2,1
1615918512627690,0,1,10,11,4,-1,0,-1
1615918512629684,-2,-4,-15,-10,-1,2,-4,-1
1615918512629684,-3,-1,5,1,3,-3,0,-2
1615918512650652,-2,2,21,4,-1,-4,-2,-3
1615918512650652,-2,-6,-22,-17,-3,2,7,-1
1615918512651650,-1,6,35,34,2,1,-17,-2
1615918512651650,0,-3,-18,-27,-3,-5,1,-2
1615918512672593,-1,-1,-1,16,1,-1,4,0
1615918512672593,-3,-4,-16,-20,-4,-2,-1,-1
1615918512674564,-2,2,19,22,1,-5,-7,-1
1615918512674564,-3,-4,-11,-18,-3,-1,-2,-2
1615918512687246,-1,-2,3,10,1,2,-7,-3
1615918512687246,1,0,5,-3,2,-2,3,0
1615918512694204,1,-3,-18,-18,-2,4,4,1
1615918512694204,1,1,27,27,-1,3,0,0
1615918512710184,-1,-3,-19,-28,-3,-1,1,0
1615918512710184,0,0,6,16,-2,-1,-2,-1
1615918512712155,-2,0,-4,-2,1,0,-1,-2
1615918512712155,2,1,-5,-5,3,4,6,2
1615918512725122,-1,0,3,0,-3,-6,-6,0
1615918512725122,-1,-2,-2,2,0,-6,-4,-2
1615918512731128,-1,0,-4,-2,-2,2,3,0
1615918512731128,-1,1,-10,0,1,-2,0,-3
1615918512748084,0,-1,6,-10,-4,-2,6,1
1615918512748084,-1,-4,-24,15,-3,-2,-1,-4
1615918512750076,0,-2,2,-5,-1,-5,-1,-1
1615918512750076,-4,-3,10,-12,-1,1,-3,1
1615918512770025,0,0,9,13,3,3,0,-1
1615918512770025,-2,0,-1,-23,-3,0,-9,-1
1615918512772012,-4,0,-7,8,-4,-2,10,-2
1615918512772012,2,-1,-3,3,-2,-1,-4,0
1615918512785143,-5,-3,1,-10,-3,-2,-1,-3
1615918512785143,2,3,13,-3,0,8,10,4
1615918512792097,-3,-3,-6,0,-2,-13,-30,-5
1615918512792097,-2,-1,-6,1,-1,1,0,-2
1615918512808054,-1,-4,-30,-15,-1,-7,-1,-2
1615918512808054,1,6,40,28,4,2,4,0
1615918512810048,2,0,-3,-10,0,2,9,3
1615918512810048,-4,-5,-21,-12,-2,-2,-3,-4
1615918512830752,3,5,34,17,3,5,-8,2
1615918512830752,-2,-1,-13,6,-1,-3,2,0
1615918512831776,2,1,-11,-22,-5,-1,-2,-1
1615918512831776,-1,-2,0,3,-5,-1,6,-1
1615918512844738,-1,-3,-13,-20,-3,-3,-14,-4
1615918512844738,-3,-5,-6,18,0,-4,-8,-3
1615918512851722,2,2,26,10,1,3,9,1
1615918512851722,-1,-4,-14,-10,3,3,-7,1
1615918512867675,-2,1,5,4,-1,-1,5,0
1615918512867675,0,2,6,-3,0,2,-4,1
1615918512869647,-2,-6,-35,-7,-3,-3,-1,-1
1615918512869647,2,8,38,23,3,4,7,0
1615918512890614,-4,-6,-30,-27,-5,-7,-4,-4
1615918512890614,1,1,17,10,-2,-1,-7,-2
1615918512892586,-2,-4,-9,-11,0,4,7,-2
1615918512892586,0,2,4,4,0,-3,-5,0
1615918512904576,0,-2,-7,-7,-1,5,8,0
1615918512904576,-1,-1,9,7,-2,-13,-22,-1
1615918512911558,-4,-3,-7,-2,-3,-4,0,-5
1615918512911558,-2,-2,-7,2,-2,1,-5,-2
1615918512928200,-2,-1,-15,-12,0,-1,0,0
1615918512928200,1,4,18,21,1,2,7,2
1615918512929173,-1,1,8,-5,-2,-4,-7,0
1615918512929173,-2,-1,1,-4,-1,-3,-1,-2
1615918512950141,-1,-1,-6,4,0,4,7,0
1615918512950141,-2,-6,-18,-30,-3,5,5,-1
1615918512952112,-1,1,28,29,1,-10,-5,-2
1615918512952112,2,2,-16,9,2,-3,-3,1
1615918512964104,-1,0,14,11,-3,3,5,1
1615918512964104,-1,-1,-1,-18,1,-2,2,2
1615918512973055,-3,-5,-15,-1,-1,6,8,-1
1615918512973055,1,-4,-15,-23,-1,2,-2,-2
1615918512988039,0,3,27,22,2,-9,0,1
1615918512988039,0,1,7,14,1,1,-1,-2
1615918512990011,0,-4,-12,-19,-5,1,-3,-1
1615918512990011,-4,-5,-14,-9,-2,-2,-1,-1
1615918513009981,2,3,21,4,-4,3,-6,-2
1615918513009981,-3,-5,0,17,-2,-5,7,-2
1615918513011951,-1,4,11,-9,1,-3,-7,-1
1615918513011951,-3,-2,-3,7,-1,1,-22,-2
1615918513023944,0,-2,-9,-12,2,1,7,1
1615918513023944,-3,-3,-22,-22,-2,-1,-5,-4
1615918513032895,2,5,26,25,2,-4,1,-1
1615918513032895,-1,-5,-10,-12,-3,-1,10,1
1615918513047879,-1,3,19,8,-2,-3,-6,-1
1615918513047879,0,-4,-16,-27,-2,0,-2,1
1615918513049874,0,1,0,20,-1,4,2,1
1615918513049874,-1,1,14,0,-3,-8,2,2
1615918513070818,-1,-2,-7,4,0,-1,-6,-5
1615918513070818,-1,-1,-9,-5,1,-3,2,-4
1615918513071792,0,0,5,-14,2,10,8,3
1615918513071792,-1,-4,-4,8,0,-4,-8,-3
1615918513083759,-1,1,-9,7,2,3,0,0
1615918513083759,0,1,1,-9,-1,-2,-1,0
1615918513093733,-1,-3,2,-4,0,-4,0,0
1615918513093733,0,2,0,1,-3,-4,5,-1
1615918513107722,-3,-7,-14,12,1,1,-2,-2
1615918513107722,0,0,-4,-14,-2,0,-2,-2
1615918513109691,-1,-2,2,11,1,-4,9,-1
1615918513109691,-1,-3,-9,-13,-2,-1,-6,-1
1615918513137639,-4,-2,-17,-9,-3,-3,-4,-3
1615918513137639,0,1,7,-10,-1,1,1,-3
1615918513139611,1,2,-14,10,-2,4,-4,0
1615918513139611,0,1,6,-7,-3,-2,4,-1
1615918513143624,-3,-2,-12,-3,0,-7,3,-2
1615918513143624,2,-3,-14,-32,0,-3,-18,-1
1615918513153580,-4,-6,0,23,-2,-4,-3,-1
1615918513153580,3,3,16,-5,-1,2,0,-1
1615918513167559,-1,-2,-9,4,-1,1,2,0
1615918513167559,-4,0,5,3,-4,0,4,0
1615918513169531,-2,1,2,-19,-2,-6,-5,-4
1615918513169531,-3,-3,-15,4,0,0,0,-2
1615918513190502,1,-1,7,-6,-2,-5,3,2
1615918513190502,-1,-2,-18,12,2,2,3,-1
1615918513193479,1,-5,-4,-6,-2,1,-7,-2
1615918513193479,0,3,3,-10,0,4,6,0
1615918513204461,0,0,4,20,-3,-3,12,0
1615918513204461,0,1,4,2,-4,-1,-18,-3
1615918513213412,-3,-5,-32,-33,-5,-7,-4,-2
1615918513213412,-1,-3,9,29,0,-2,6,-1
1615918513228372,1,0,2,-19,-1,5,-7,-1
1615918513228372,-4,-4,-4,-2,-1,-9,8,0
1615918513230367,2,3,14,-1,-2,4,0,2
1615918513230367,-3,-4,-14,-18,-2,-4,-8,-2
1615918513251311,1,4,23,37,1,0,-2,1
1615918513251311,-1,0,-2,6,0,3,6,-1
1615918513252310,-2,-5,-14,-12,0,-1,-6,-2
1615918513252310,-2,-2,3,-4,-1,0,5,1
1615918513264516,-1,0,-5,-13,-3,-1,-8,-5
1615918513264516,2,-1,6,17,3,1,5,2
1615918513273492,0,0,2,-6,0,2,-2,-2
1615918513273492,-2,1,16,7,-3,-3,-1,2
1615918513288452,-1,2,0,-15,0,3,-3,-3
1615918513288452,-1,-1,-3,6,1,0,-2,-2
1615918513294436,0,-2,-10,-17,0,5,11,2
1615918513294436,1,2,-10,28,1,-4,-5,-1
1615918513310369,-4,-5,-10,-2,-2,-1,-5,-1
1615918513310369,-2,-2,-4,-14,-2,-3,3,1
1615918513312364,-2,0,1,4,-2,-5,-6,-3
1615918513312364,-1,3,28,1,-2,-1,-2,1
1615918513324332,-1,-2,-2,-6,0,-2,2,3
1615918513324332,-1,-2,-4,0,-3,5,5,-1
1615918513333307,-2,-2,-8,-2,1,0,-5,-2
1615918513333307,1,2,4,-11,1,2,2,3
1615918513348301,-2,-4,-13,-12,-6,-3,-3,-2
1615918513348301,-1,-2,16,10,0,-3,3,0
1615918513349300,-2,-4,-13,-13,-2,2,-2,-1
1615918513349300,1,0,-11,4,3,-2,-3,-2
1615918513370241,-2,3,20,8,-1,-1,3,1
1615918513370241,0,0,-5,1,1,2,-4,0
1615918513372210,-2,2,20,8,-2,-2,-2,-1
1615918513372210,0,-2,-9,-9,0,1,-1,-1
1615918513393155,-1,-3,-14,-9,0,-5,6,0
1615918513393155,-1,3,1,-1,-3,2,-6,1
1615918513395148,-2,-1,21,26,2,0,-13,-5
1615918513395148,0,-3,-7,-21,-5,-4,4,-2
1615918513415828,0,2,20,15,0,-2,1,1
1615918513415828,0,2,10,12,-1,-1,4,1
1615918513416832,0,-1,-14,-3,1,1,4,0
1615918513416832,-3,-5,-10,-16,-4,3,-8,-4
1615918513437746,-2,-5,-10,1,0,-1,-6,-3
1615918513437746,-1,1,12,4,1,-5,1,-1
1615918513439741,-1,0,-6,-12,-5,-6,-4,0
1615918513439741,-1,-5,-11,-3,0,1,0,1
1615918513460709,-2,2,13,8,0,1,-5,0
1615918513460709,-1,-2,-8,-13,-1,-3,-6,-1
1615918513461706,-1,-6,-13,-8,-1,3,3,-2
1615918513461706,-2,1,22,11,-1,-3,-2,-4
1615918513467693,3,-1,-11,-4,1,2,1,4
1615918513467693,-2,-1,5,10,-2,2,0,0
1615918513469660,-1,-3,-9,-9,-5,-5,6,1
1615918513469660,-1,2,12,13,0,-4,-6,-3
1615918513490628,-1,-1,1,4,-1,5,0,-2
1615918513490628,-1,-2,-5,-13,-2,-6,-4,-4
1615918513492600,3,7,22,17,4,1,11,4
1615918513492600,-1,1,1,-4,0,-5,-2,0
1615918513512570,-1,-6,-20,2,-2,-4,-6,-6
1615918513512570,2,-2,-20,-35,-3,1,3,0
1615918513514541,0,3,29,35,1,-3,0,2
1615918513514541,-2,-1,-12,-15,-2,1,4,0
1615918513527534,0,-1,-9,1,1,3,1,-1
1615918513527534,0,0,0,2,1,0,2,2
1615918513534511,-1,-3,-9,-17,-1,-2,2,-2
1615918513534511,-1,1,6,26,2,-4,-25,-3
1615918513550444,-1,-3,-8,-15,-5,-5,4,-2
1615918513550444,0,0,-1,-6,-2,0,2,-1
1615918513552439,-1,-4,-12,6,1,5,3,2
1615918513552439,-2,-1,-2,4,-2,-1,5,2
1615918513573410,-2,-1,-10,-30,-2,-4,-9,-2
1615918513573410,-2,-1,9,29,-2,-5,1,2
1615918513574381,-3,-3,-35,-28,-1,1,-13,-3
1615918513574381,1,4,37,12,1,0,10,1
1615918513587370,-3,-2,-11,-10,-3,-5,-5,-1
1615918513587370,-1,-2,10,18,1,-1,-2,-2
1615918513594352,-3,-5,-19,-11,-1,0,-2,-4
1615918513594352,0,-1,-17,-10,-1,5,10,1
1615918513610309,1,2,29,16,-1,-6,-5,0
1615918513610309,0,0,-5,-18,-3,-1,-1,-1
1615918513612280,-2,-2,0,4,-4,-2,-6,-2
1615918513612280,0,-3,-16,-9,-1,-2,3,1
1615918513632558,-2,0,19,11,1,2,6,-2
1615918513632558,-4,-3,-28,-11,-4,-4,-4,-5
1615918513634552,1,2,25,16,0,-1,2,2
1615918513634552,-1,-5,-22,-30,-4,-1,1,-2
1615918513647263,0,5,24,31,2,1,-1,3
1615918513647263,-1,-2,-7,-6,-2,-2,-6,0
1615918513654248,-2,1,-11,-8,-1,2,-2,-1
1615918513654248,-4,-6,-17,-4,-3,-3,-2,-3
1615918513670204,0,3,6,-16,-2,-2,2,0
1615918513670204,-1,-2,13,23,1,8,7,-1
1615918513672175,0,-3,-6,-15,-4,-5,-5,-2
1615918513672175,-1,2,11,9,3,5,1,-1
1615918513693007,0,-3,-13,-2,-2,5,-3,-3
1615918513693007,0,3,9,-16,3,-5,1,-1
1615918513694971,-1,1,2,10,-2,-6,4,-2
1615918513694971,-2,1,4,21,-1,5,-5,-1
1615918513706936,-3,-3,-15,-12,1,-8,-1,-1
1615918513706936,-1,-2,-5,-15,1,3,0,0
1615918513715913,0,-1,-8,12,3,2,-1,-3
1615918513715913,3,4,7,-12,-2,-3,1,1
1615918513737853,-1,-5,-27,4,-2,-3,-4,-2
1615918513737853,0,2,18,7,-1,-2,-7,-3
1615918513739848,-2,-1,12,12,1,4,0,0
1615918513739848,-4,-4,-16,-27,-7,-4,6,-2
1615918513760791,2,-1,4,29,4,-1,-24,0
1615918513760791,-1,-1,-1,-7,-4,-2,1,-2
1615918513761789,-4,-2,-4,-8,-4,-4,-3,-5
1615918513761789,-1,-4,-10,-6,1,1,4,0
1615918513767797,-2,-1,-6,-7,-1,7,7,0
1615918513767797,0,0,-10,-14,1,-2,-9,-1
1615918513773757,2,-1,9,9,1,0,2,0
1615918513773757,0,2,28,11,2,-1,-1,3
1615918513790048,1,1,3,-8,-1,2,-3,1
1615918513790048,-3,-2,-21,-12,2,-1,3,-1
1615918513793015,1,1,15,21,1,2,5,3
1615918513793015,-1,1,19,10,0,-8,3,-2
1615918513812961,-1,-1,-14,-15,0,3,-11,-4
1615918513812961,-1,-3,9,12,-3,3,4,0
1615918513814957,-3,-2,-31,-17,-6,-7,-4,-1
1615918513814957,0,-3,-6,19,1,4,-8,-1
1615918513826924,-2,-1,3,-7,-2,-1,9,0
1615918513826924,0,0,-12,-12,-1,-7,-6,-1
1615918513833931,1,0,3,13,-1,1,-2,1
1615918513833931,0,0,-3,-5,0,0,-6,0
1615918513850860,-3,-1,-14,-12,-5,-3,6,-2
1615918513850860,-3,-2,-3,-6,-2,0,-2,-2
1615918513851859,2,4,18,1,1,-2,-2,2
1615918513851859,4,5,18,0,1,-1,8,3
1615918513872826,-4,-7,-29,-11,1,1,2,-3
1615918513872826,0,3,38,26,1,0,-8,0
1615918513874798,-2,-3,0,3,-1,-3,6,-1
1615918513874798,-4,-5,-10,0,-3,0,-4,-5
1615918513886788,0,1,1,-7,-2,-2,6,3
1615918513886788,-1,-2,-11,4,3,6,2,-2
1615918513895741,-4,-3,-8,-42,-2,-1,-5,-3
1615918513895741,3,4,39,43,2,-3,-1,1
1615918513910725,-1,-2,6,7,-2,-4,-1,-2
1615918513910725,0,-3,-42,-18,-1,1,-3,-3
1615918513911725,3,8,53,11,-1,-6,-4,-1
1615918513911725,-4,-8,-50,-51,-4,-1,-5,-3
1615918513932673,1,4,34,28,1,0,-1,-2
1615918513932673,1,0,31,14,0,0,6,3
1615918513934637,-1,-4,-32,-11,-5,-4,5,-1
1615918513934637,-1,-3,-8,-13,-1,5,-2,0
1615918513946605,-1,0,4,12,1,0,9,1
1615918513946605,-2,-3,-12,-13,-3,-1,-11,-3
1615918513955581,0,-1,8,13,2,7,4,0
1615918513955581,-3,0,1,2,-1,-10,-4,-4
1615918513970564,-1,-1,-17,-25,0,-4,-5,1
1615918513970564,1,0,23,14,0,2,7,0
1615918513972571,-1,0,-3,-3,1,0,-8,-1
1615918513972571,-5,-3,-20,-16,-2,-1,-3,-5
1615918513993480,1,0,29,16,0,1,2,2
1615918513993480,-2,2,-14,-15,0,-3,5,-2
1615918513994477,-1,-2,10,15,0,3,-25,-4
1615918513994477,-1,-5,-10,-6,-2,-5,0,-3
1615918514007155,2,4,-5,-7,-1,-1,3,1
1615918514007155,-2,-3,9,1,-4,-2,-1,-3
1615918514016098,1,-4,-22,-2,4,2,7,2
1615918514016098,0,3,-6,-23,-3,1,4,-1
1615918514030084,-1,-2,24,32,0,3,-8,-3
1615918514030084,-1,-5,-25,-5,1,-3,-5,-2
1615918514037041,0,0,-10,-11,-2,2,3,1
1615918514037041,2,2,3,7,0,-8,-4,1
1615918514053023,-1,-3,-9,-11,0,-1,5,-2
1615918514053023,-1,-1,6,9,-2,2,-2,-1
1615918514054994,-5,-5,-5,-20,-2,2,6,-2
1615918514054994,-2,1,10,29,3,0,-18,-2
1615918514066986,-2,-3,8,-7,0,-5,3,-1
1615918514066986,0,-3,-22,-8,1,0,2,1
1615918514075938,0,2,8,18,-1,-7,-5,-1
1615918514075938,0,0,15,15,-3,-1,8,-1
1615918514090898,-4,-2,-12,-18,-2,0,-7,-4
1615918514090898,-3,-3,-5,-3,-3,-6,-9,-4
1615918514092893,-1,-5,-17,-6,1,1,10,1
1615918514092893,2,2,-11,4,-1,1,2,1
1615918514112863,-1,-2,13,12,0,-1,-6,-3
1615918514112863,-1,-1,-18,-18,-1,-4,2,1
1615918514114834,-1,0,3,4,-2,0,-4,-2
1615918514114834,-1,-3,-5,-8,1,7,3,2
1615918514126802,-1,-4,-31,-9,-3,-9,-2,-2
1615918514126802,1,4,34,18,1,3,13,0
1615918514135778,-1,-2,-22,-10,-3,-4,-21,-3
1615918514135778,-1,0,10,1,-1,-1,0,1
1615918514150737,0,2,-5,-4,1,9,4,0
1615918514150737,-2,-4,-10,-8,-2,-2,5,1
1615918514152732,-1,1,-3,1,-3,-9,-2,-3
1615918514152732,-1,-4,-6,2,-2,0,3,1
1615918514172704,1,-1,-3,-15,-5,-4,1,0
1615918514172704,1,3,28,15,-1,3,-5,0
1615918514174702,-2,-3,-2,-3,-3,-5,-1,-4
1615918514174702,-1,2,7,4,0,0,-3,2
1615918514187012,-1,-5,-9,-4,-2,-2,-2,-2
1615918514187012,1,3,11,4,-1,-1,6,1
1615918514195990,1,-3,-15,-28,1,3,-2,-1
1615918514195990,-3,-4,2,5,-3,-5,3,-4
1615918514210949,1,7,48,35,1,-2,-2,3
1615918514210949,-2,-4,-31,-21,-1,2,-5,-2
1615918514211948,-2,-3,0,-1,-4,-3,9,0
1615918514211948,-2,-6,-25,-19,1,3,-4,-4
1615918514232917,-1,1,17,-6,2,4,-1,1
1615918514232917,-1,3,22,27,0,-10,-6,-3
1615918514234886,1,2,9,-3,1,5,-2,0
1615918514234886,-1,-2,-2,-2,-1,3,4,-1
1615918514246854,-2,-2,-17,-15,-3,-8,0,-2
1615918514246854,0,-3,6,6,1,2,-1,2
1615918514255830,-2,-4,-15,7,0,1,6,0
1615918514255830,0,1,25,2,-1,-4,-6,-2
1615918514270790,0,-2,-19,-4,2,3,2,-1
1615918514270790,0,0,2,-2,-4,1,-3,1
1615918514271787,0,-1,-24,-16,1,-2,-2,0
1615918514271787,1,4,22,20,-4,-6,4,0
1615918514292732,-3,-3,1,0,-2,-1,-5,-3
1615918514292732,-3,-3,-5,-4,-1,3,-3,-2
1615918514294726,-4,-1,7,0,-2,-3,1,-1
1615918514294726,-1,0,-12,-21,0,-1,8,0
1615918514315696,-1,0,12,16,-1,-2,-12,0
1615918514315696,-3,-3,-16,1,2,1,-2,-2
1615918514316691,-1,2,20,3,-2,-2,0,-2
1615918514316691,-2,-5,-27,-6,1,-3,-5,-2
1615918514337635,-2,-4,-19,-30,-2,-1,-1,0
1615918514337635,0,1,20,16,-2,-3,6,1
1615918514339607,-1,1,21,23,2,4,-2,-2
1615918514339607,0,1,-6,-11,-1,-3,-9,-3
1615918514351574,-1,-3,-7,2,-4,-3,5,-2
1615918514351574,-2,-5,-28,-26,-3,2,1,-1
1615918514360550,2,0,-5,-1,-1,-2,5,4
1615918514360550,-1,2,27,29,3,-1,-3,0
1615918514375511,2,1,-9,-20,0,2,2,3
1615918514375511,-5,-6,-12,0,-3,-2,-4,-5
1615918514377529,1,1,7,12,0,2,1,-1
1615918514377529,-4,-6,-26,-13,-1,1,-1,0
1615918514390470,-3,1,3,2,-3,-5,-2,-3
1615918514390470,1,1,6,9,3,-4,-8,-3
1615918514393463,-1,0,13,0,-1,-7,-1,-2
1615918514393463,0,-2,-11,-13,1,4,-1,-1
1615918514413433,0,-3,-9,3,0,1,9,-1
1615918514413433,0,-1,-7,-11,-1,-1,-3,-1
1615918514414406,2,2,20,7,-2,1,1,1
1615918514414406,-2,-1,7,7,-2,4,1,-1
1615918514435376,-3,1,-1,3,-2,-8,-6,-2
1615918514435376,-2,-6,-19,0,-1,-2,-4,-5
1615918514437345,-2,0,0,-1,-1,1,1,0
1615918514437345,-1,-1,10,0,-4,-4,-3,-2
1615918514450335,0,-4,-14,2,1,1,-3,-1
1615918514450335,2,7,29,-6,0,-2,-3,-1
1615918514452305,-1,-5,-5,7,3,1,5,1
1615918514452305,1,0,-3,-5,1,0,-4,-2
1615918514473273,-5,-6,-25,-21,-2,2,0,-2
1615918514473273,1,4,23,25,-1,-3,9,4
1615918514474246,-1,-1,-15,-6,0,-1,-13,-4
1615918514474246,-2,-4,-22,-27,1,-5,11,-1
1615918514503192,2,2,24,25,4,3,-3,1
1615918514503192,-1,0,-4,-3,-5,-2,2,-1
1615918514505164,0,-1,-3,-13,-1,2,-1,1
1615918514505164,-2,-3,-10,11,-4,1,-2,-1
1615918514510151,-1,-2,0,-11,-4,-1,2,0
1615918514510151,1,1,18,16,1,0,-8,1
1615918514517132,-3,-4,-12,-19,-3,-3,1,-3
1615918514517132,3,0,4,3,0,-6,-4,2
1615918514533114,-3,-1,-1,2,-1,0,-1,0
1615918514533114,3,4,4,-6,2,3,10,4
1615918514535107,0,2,16,12,0,2,-27,-3
1615918514535107,0,-3,-11,-6,0,-5,2,0
1615918514556028,0,0,8,9,-1,1,0,2
1615918514556028,-2,-6,-14,-16,-1,-2,-5,-5
1615918514557024,0,3,-6,-1,-3,-13,6,-1
1615918514557024,-1,2,10,1,5,9,5,2
1615918514570014,-1,-1,8,21,-1,-6,-5,-4
1615918514570014,-2,-2,-23,-16,-3,0,-3,0
1615918514576995,-1,-3,-4,-9,1,-1,4,-1
1615918514576995,-2,-1,10,2,-4,-1,-7,-2
1615918514592955,-1,-2,-9,-12,-2,-2,3,-1
1615918514592955,-2,-2,-7,14,0,-1,2,3
1615918514594924,-2,-3,-5,0,0,-2,-1,-2
1615918514594924,-3,-2,-4,-13,-2,-4,3,-2
1615918514615897,0,1,11,9,4,2,-4,-1
1615918514615897,2,-2,-10,-13,-2,-3,-2,1
1615918514616866,0,1,17,13,1,3,4,2
1615918514616866,-1,-1,-1,10,-2,1,-3,-2
1615918514629830,-1,-4,-22,-35,-2,0,5,-1
1615918514629830,-2,-3,-11,30,2,3,-2,-3
1615918514637808,0,3,19,-2,-1,-5,1,0
1615918514637808,0,2,2,-7,-1,-4,1,-1
1615918514652792,-2,-4,-25,-10,-4,-4,-3,-1
1615918514652792,-3,-3,-3,1,-2,-1,-3,0
1615918514654765,-1,-5,-3,-4,-1,8,3,-2
1615918514654765,0,3,8,21,-1,-3,-7,-2
1615918514675155,-1,0,2,-8,0,1,-3,0
1615918514675155,-2,-2,-4,-4,-3,-9,13,-2
1615918514677149,-1,-2,-4,-12,-1,2,-17,0
1615918514677149,-1,-3,-4,-6,-1,5,2,0
1615918514690248,3,10,46,39,2,4,1,3
1615918514690248,-2,-3,-5,-15,0,-7,-4,-2
1615918514696257,-3,-1,-16,-10,-4,-5,5,-1
1615918514696257,-3,-8,-23,-34,-2,-3,-2,-1
1615918514712719,-2,0,29,38,3,4,2,-2
1615918514712719,0,2,11,9,-1,0,-2,-1
1615918514714711,-1,-3,-6,-5,0,-2,0,-1
1615918514714711,-1,-3,-19,-5,-1,3,-4,-1
1615918514735678,1,2,17,2,-1,-4,1,-1
1615918514735678,-1,-2,-15,-26,-4,-1,-4,0
1615918514737649,-2,-2,9,15,-6,-4,0,-2
1615918514737649,0,2,7,6,-1,-1,10,-1
1615918514749640,-1,-3,-21,-17,-3,-3,-23,-3
1615918514749640,0,-1,1,0,-4,1,-3,-1
1615918514756621,1,-2,-9,-13,0,2,2,1
1615918514756621,-1,0,10,-3,-1,-2,6,-1
1615918514772578,-1,-1,9,21,-2,4,11,-3
1615918514772578,1,3,24,1,2,-7,-18,-1
1615918514774550,0,-3,-16,-15,-4,2,4,2
1615918514774550,2,1,7,13,-1,-12,-11,-1
1615918514796017,1,0,5,-7,-1,1,3,4
1615918514796017,-3,-4,-22,-4,-2,0,0,-1
1615918514797014,-3,-3,-7,0,1,-1,2,-2
1615918514797014,2,5,17,9,-1,2,-4,1
1615918514810003,-2,-2,-3,-8,0,-3,-2,-3
1615918514810003,-1,-3,-7,-17,1,1,5,-1
1615918514816987,1,1,16,25,-1,-3,2,0
1615918514816987,1,1,5,9,1,0,-6,0
1615918514832942,-4,-10,-37,-22,0,-2,5,-1
1615918514832942,-1,3,24,15,1,2,-1,-1
1615918514834938,-3,0,-8,-2,0,-5,-3,-3
1615918514834938,-2,-3,-15,-7,-3,-1,0,-1
1615918514855881,1,0,-11,-7,-2,-1,3,0
1615918514855881,-4,-3,-7,-8,-1,-7,-1,-4
1615918514856855,2,1,2,14,0,4,2,4
1615918514856855,-1,-3,-11,-13,0,0,0,0
1615918514868846,0,1,11,10,2,-2,0,0
1615918514868846,1,-1,-7,1,0,3,0,-2
1615918514877826,-1,-5,-9,-6,0,-1,4,-1
1615918514877826,-1,3,8,0,-3,-3,-13,-5
1615918514892759,-1,-4,-8,-12,-4,-1,-3,0
1615918514892759,1,-2,0,-1,-2,3,5,-2
1615918514894753,-1,2,16,4,1,-8,-20,-5
1615918514894753,-1,-2,-6,-10,-3,-2,5,0
1615918514915721,-3,-3,-11,-1,-3,-4,-3,-4
1615918514915721,1,3,11,12,-1,3,0,2
1615918514916719,-4,-5,-23,-43,-7,-9,2,-3
1615918514916719,0,2,27,39,-1,5,0,1
1615918514928686,-3,0,4,-6,-4,-3,-8,-2
1615918514928686,3,0,-10,-10,0,-1,3,2
1615918514938636,-2,-3,-21,-33,-2,1,4,0
1615918514938636,0,3,36,46,2,3,3,1
1615918514952625,-2,-3,-15,-18,0,-2,-1,-1
1615918514952625,0,2,12,11,-2,0,-5,-1
1615918514954617,0,-2,0,-1,0,3,-2,-2
1615918514954617,-2,-4,-12,-10,1,1,2,-1
1615918514975565,-1,-1,-9,-3,0,1,5,1
1615918514975565,-2,-4,5,2,1,-1,4,0
1615918514977557,-2,2,22,17,-5,-4,-22,-4
1615918514977557,1,0,8,2,0,-3,-3,-1
1615918514989526,0,-1,-16,-8,-5,-3,-3,0
1615918514989526,-2,-4,-10,-16,-1,-1,3,0
1615918514998501,0,1,15,25,2,3,5,0
1615918514998501,-3,-5,-18,-28,-6,2,0,-1
1615918515013443,3,4,19,14,1,-12,-7,0
1615918515013443,-2,-4,-21,-21,-3,0,-6,-1
1615918515014433,-3,-1,13,22,3,-2,7,1
1615918515014433,-3,-3,-36,-34,-4,1,-2,-4
1615918515035888,2,3,29,24,1,6,9,0
1615918515035888,-2,0,9,3,0,-4,-20,-3
1615918515036885,1,0,-10,2,0,-1,1,-1
1615918515036885,-1,-2,-14,-7,1,-2,5,4
1615918515048876,-1,-5,-13,-14,-3,0,-3,-2
1615918515048876,-1,0,-6,5,-3,2,2,-1
1615918515057826,0,3,13,12,3,6,3,1
1615918515057826,-4,-7,-24,-20,-1,-7,-2,-1
1615918515073784,-1,3,18,18,1,5,2,-1
1615918515073784,-1,1,-4,-3,-2,0,0,-1
1615918515078770,1,-2,-26,-24,-1,-3,0,2
1615918515078770,1,1,23,41,-2,2,1,1
1615918515094802,-2,-3,-8,-20,0,-1,5,-2
1615918515094802,-4,-5,-5,-3,-1,1,-9,-5
1615918515102779,-1,0,5,-6,-4,-2,2,1
1615918515102779,1,-1,-4,-2,-6,-4,3,-1
1615918515108740,1,-3,-7,-8,0,-1,1,-1
1615918515108740,0,-1,-1,1,-1,4,-5,-1
1615918515123927,-3,-6,-11,4,-4,-4,5,-1
1615918515123927,1,6,15,-1,-2,1,-2,2
1615918515132928,-3,-2,0,-5,-1,0,2,-2
1615918515132928,-1,-2,-15,-50,-3,-2,3,-2
1615918515134898,0,1,29,53,3,-4,-2,-1
1615918515134898,0,0,-3,-7,0,-5,0,-3
1615918515155865,-3,-2,-11,-4,-1,0,-7,-3
1615918515155865,-1,-1,6,2,2,1,0,-2
1615918515156843,0,-2,0,-9,-1,0,1,1
1615918515156843,-4,-2,7,10,0,-4,-6,-2
1615918515169829,1,-1,-19,-22,2,4,0,1
1615918515169829,-2,-2,13,40,-4,-6,-1,0
1615918515177693,0,1,-3,-15,0,2,6,-4
1615918515177693,0,-6,-8,-4,-2,2,3,-1
1615918515192677,0,-3,-19,-20,1,0,-16,-1
1615918515192677,-1,0,4,-5,2,0,8,1
1615918515194642,2,3,7,12,-1,-4,-6,0
1615918515194642,-1,1,20,10,3,0,2,-3
1615918515215611,-3,-6,-17,-13,-7,-5,-4,-2
1615918515215611,-1,3,23,19,-2,-3,-1,-3
1615918515217605,0,0,-22,-14,-1,3,1,0
1615918515217605,-2,-4,-12,-17,0,-1,-2,1
1615918515229573,-1,-2,0,6,-4,-5,1,-1
1615918515229573,0,1,3,-4,-1,-4,-1,0
1615918515238549,-2,-5,-8,5,1,2,-6,-3
1615918515238549,1,7,18,-5,0,0,-4,-3
1615918515253484,0,-3,-8,3,-2,1,5,1
1615918515253484,0,-1,11,24,-3,-5,6,1
1615918515254482,-3,-4,-21,-10,0,-1,-15,-2
1615918515254482,-2,-1,-9,-9,-1,0,-1,-3
1615918515275433,-3,-1,-8,-12,-4,-8,-2,-2
1615918515275433,1,1,14,4,2,-3,0,2
1615918515277446,-3,-2,-3,-9,-3,1,7,-1
1615918515277446,-1,-3,1,5,-2,-3,-3,0
1615918515298392,2,3,6,8,2,2,2,0
1615918515298392,-1,-5,-29,-6,-2,-2,-11,0
1615918515299364,2,1,17,10,-3,-3,-4,0
1615918515299364,-2,-1,-6,-9,-4,-4,1,-1
1615918515313349,-1,0,1,-1,2,4,2,-1
1615918515313349,0,2,23,26,0,4,0,-2
1615918515314348,1,3,5,-3,0,-1,7,-1
1615918515314348,-1,-8,-35,-11,-2,0,-3,2
1615918515335291,-1,2,11,9,2,0,0,0
1615918515335291,-2,-2,1,0,-1,1,2,-3
1615918515337261,0,0,4,1,0,2,1,1
1615918515337261,2,0,-1,6,0,0,4,1
1615918515358206,-2,-4,-9,-4,0,-2,-2,0
1615918515358206,-1,-1,-11,-4,1,0,-1,0
1615918515360200,-2,-3,-8,-1,-3,1,1,-2
1615918515360200,-1,-3,-13,-19,0,-1,-5,-4
1615918515380174,1,7,39,34,-2,3,-1,2
1615918515380174,-2,-4,-40,-27,-3,-7,0,-2
1615918515382141,-3,-2,12,-2,0,-3,-6,-4
1615918515382141,-1,2,2,6,2,5,4,0
1615918515403109,-1,-1,10,-3,-2,-3,2,-1
1615918515403109,-1,-3,-20,4,0,4,-5,-1
1615918515405105,3,6,32,0,1,2,4,2
1615918515405105,-1,-3,-2,5,-2,-4,-6,-2
1615918515417071,-1,-3,-16,-3,0,2,7,-1
1615918515417071,-1,-1,0,-6,-2,-2,1,0
1615918515426023,0,0,18,15,0,-2,-1,-2
1615918515426023,-2,-5,-8,3,0,-1,0,-2
1615918515432744,2,1,-14,-34,-4,-4,-4,-1
1615918515432744,-4,-4,12,11,-1,-8,-4,-3
1615918515446740,-2,-1,-16,-13,-4,-2,-4,0
1615918515446740,0,0,2,2,-1,0,1,-3
1615918515455830,-2,-2,10,19,-1,-1,-7,-2
1615918515455830,2,2,-4,-16,-2,3,6,2
1615918515456823,-2,-6,-10,-7,-1,-2,8,-2
1615918515456823,-2,-1,4,3,0,-2,-7,-2
1615918515477774,1,0,-3,-1,-4,-3,-4,-1
1615918515477774,1,-1,-3,17,-2,3,1,-1
1615918515479770,-2,-1,-8,12,-1,-1,4,0
1615918515479770,-2,-1,-15,-23,-4,-5,-5,-4
1615918515492640,-3,-2,3,-2,-1,-1,-4,-2
1615918515492640,-1,-5,1,-5,-2,-1,1,-1
1615918515499649,-1,-8,-30,-28,-5,-3,-6,-2
1615918515499649,0,1,16,14,2,3,-1,0
1615918515515603,-4,-3,6,4,2,-4,-1,-2
1615918515515603,-1,-1,-9,-7,-1,-4,-3,-2
1615918515517597,-1,4,28,5,1,-2,-6,-1
1615918515517597,-3,-4,-31,-4,1,2,1,-2
1615918515537520,2,3,30,24,2,1,10,1
1615918515537520,-2,0,-9,-15,0,2,-12,-5
1615918515539514,2,-1,-21,-12,-3,-3,-1,3
1615918515539514,-1,-2,-5,-7,2,-2,-1,1
1615918515552505,0,-1,-8,-4,1,-1,0,1
1615918515552505,-2,1,1,-4,-1,1,11,-2
1615918515559497,2,0,6,-7,2,2,-21,-3
1615918515559497,1,4,42,30,1,1,0,-1
1615918515575420,-4,1,3,-13,-3,-3,-7,0
1615918515575420,0,3,15,8,-1,2,3,0
1615918515577413,-3,-2,-9,1,-2,-8,4,-2
1615918515577413,2,-2,2,-8,-3,1,1,2
1615918515598358,-3,-5,-15,-6,-5,1,-4,-2
1615918515598358,1,1,14,9,-3,-6,-3,-1
1615918515599355,-3,-3,-8,-8,1,9,8,1
1615918515599355,-1,0,8,7,-1,-3,13,1
1615918515612344,-2,-3,-22,-16,-2,-11,-35,-6
1615918515612344,2,-1,13,13,2,5,2,4
1615918515619326,-2,-3,-7,1,-2,2,2,-4
1615918515619326,0,-1,-7,-26,-1,-1,0,1
1615918515635259,-1,-1,-6,12,2,4,10,0
1615918515635259,-2,6,37,16,-3,-8,-6,0
1615918515637253,-1,-2,-17,-18,-2,-9,-4,-2
1615918515637253,-1,-1,2,-3,1,4,1,-1
1615918515658198,-1,0,11,0,-3,-2,3,-1
1615918515658198,-1,-4,-7,-9,-1,0,-3,2
1615918515660193,-1,-3,-8,8,0,3,5,0
1615918515660193,-2,-2,-9,-18,-4,-7,-5,-3
1615918515672185,5,4,14,23,2,8,8,2
1615918515672185,-3,-8,-25,-18,1,1,6,-3
1615918515679165,1,8,30,24,0,-5,-22,-1
1615918515679165,0,-3,-13,2,-3,1,-2,-2
1615918515695099,-1,-3,-10,-9,1,3,3,1
1615918515695099,0,-3,-17,-25,-5,-9,1,2
1615918515703078,-3,-5,-4,-2,0,4,5,-1
1615918515703078,-2,-2,-6,8,-3,-3,-3,-4
1615918515726016,0,3,24,15,1,-2,-7,-1
1615918515726016,-2,-5,-42,-32,-2,5,3,-2
1615918515727015,-2,2,20,27,-1,-7,-1,-3
1615918515727015,0,0,1,3,-1,-1,-2,4
1615918515732024,-1,-4,-16,-14,-2,2,3,-3
1615918515732024,0,1,-4,-9,1,0,-5,-2
1615918515746985,-1,2,18,12,-1,1,3,-1
1615918515746985,0,-1,-5,2,0,1,8,-1
1615918515755936,-2,-5,-21,-21,-2,-6,-21,-3
1615918515755936,-1,-1,9,19,2,1,-2,-2
1615918515756933,-1,-1,-12,-13,-2,-4,3,1
1615918515756933,-3,-4,-18,-12,-1,-1,-1,-3
1615918515777877,3,4,27,20,2,6,11,5
1615918515777877,-1,0,-6,7,-1,-10,-10,-4
1615918515779872,0,-3,-7,-16,-2,3,3,0
1615918515779872,0,5,4,23,1,0,-2,-1
1615918515791841,-3,-5,2,-3,-3,-6,-1,-3
1615918515791841,-4,-4,-10,0,-3,0,-3,-3
1615918515800816,1,3,9,-18,-1,-2,13,2
1615918515800816,1,-2,-12,2,-1,-1,-12,2
1615918515815776,-3,-1,3,5,0,-3,4,-3
1615918515815776,1,0,16,4,0,2,7,0
1615918515816774,-2,-7,-28,-18,-2,1,-4,-1
1615918515816774,0,2,10,-2,-4,-6,-5,-2
1615918515837925,-2,-2,-5,-1,2,3,6,2
1615918515837925,-1,0,21,11,-1,1,-4,1
1615918515839895,-4,-4,1,8,1,3,0,-1
1615918515839895,0,4,21,14,2,-1,0,-2
1615918515851863,-1,-2,-11,-7,-5,-4,-4,-1
1615918515851863,0,1,-1,-26,-4,0,3,-2
1615918515860838,2,-3,-7,10,0,-1,-1,0
1615918515860838,-3,-4,-5,-9,-2,-2,-2,-2
1615918515875826,-1,0,-5,-3,-2,-4,1,-1
1615918515875826,0,0,-12,-10,0,1,-4,-1
1615918515876823,0,0,14,11,-3,0,-2,-3
1615918515876823,-5,-5,-13,-9,-3,-8,-4,-4
1615918515897764,1,2,0,-8,-1,2,-2,-1
1615918515897764,-2,2,14,18,-2,-3,8,0
1615918515899735,-1,-1,-5,1,4,5,-19,0
1615918515899735,1,-3,-17,-19,-5,-2,3,1
1615918515911727,-2,-2,4,10,-3,-3,-1,-2
1615918515911727,1,-1,-14,-8,1,0,1,0
1615918515920230,-3,-3,6,-6,-2,-3,1,0
1615918515920230,-2,-1,3,-11,1,6,-3,-1
1615918515935190,0,-1,3,3,-1,-3,-3,-1
1615918515935190,1,1,1,-4,-1,2,-2,-1
1615918515937185,-1,-2,-7,-5,-4,-12,4,-1
1615918515937185,-2,3,36,28,1,2,-2,-1
1615918515958130,0,-3,-8,-6,-2,-1,3,0
1615918515958130,-3,-5,-12,-13,-3,-1,-4,-1
1615918515960124,-1,1,9,1,-3,2,7,-1
1615918515960124,-1,-4,2,-3,1,-5,3,-1
1615918515972092,-1,-3,-21,-2,-2,2,-6,-1
1615918515972092,0,1,21,5,-1,-3,2,0
1615918515981068,0,-2,10,-1,0,2,-1,1
1615918515981068,0,1,1,6,0,1,8,1
1615918515996028,1,2,15,24,2,3,1,1
1615918515996028,-1,-3,-22,-17,0,-4,-5,0
1615918515997026,-1,1,13,19,-4,0,-1,-1
1615918515997026,-2,-2,-15,-16,-3,2,2,1
1615918516025948,0,0,9,8,-1,-2,-2,-1
1615918516025948,-3,1,-2,-1,-1,-1,1,-4
1615918516026946,0,-3,-18,-15,-2,-5,-11,0
1615918516026946,-1,0,-2,-10,-2,0,-7,-1
1615918516031932,0,2,10,12,1,-1,8,-1
1615918516031932,0,-1,-1,-11,-1,2,-3,3
1615918516040909,0,2,-2,-5,3,-1,3,1
1615918516040909,1,0,3,25,4,0,-2,1
1615918516055968,-2,-2,-9,-34,2,1,0,0
1615918516055968,-1,-2,21,38,0,-3,1,-4
1615918516056866,-3,-3,-5,-21,-1,7,3,-4
1615918516056866,0,-1,-16,-2,-1,-6,-8,2
1615918516077596,-1,3,8,9,2,-3,6,0
1615918516077596,-1,-1,-13,-14,-1,1,-2,0
1615918516079591,-2,0,-9,8,0,1,-2,-1
1615918516079591,-1,-5,0,-12,-2,6,4,-1
1615918516091612,-4,-2,-4,6,-8,-16,-7,-4
1615918516091612,-1,2,8,8,3,-1,-4,-1
1615918516100587,0,0,-17,-20,0,0,9,-1
1615918516100587,-2,-2,2,17,1,1,-25,-5
1615918516115658,0,2,14,-6,-1,1,-2,-1
1615918516115658,-2,-4,-16,-2,-3,-4,-6,-3
1615918516117652,-2,-1,9,-8,-6,-3,14,0
1615918516117652,0,0,-7,7,2,1,-7,-2
1615918516137627,-1,-2,-21,-12,-4,2,-3,-3
1615918516137627,-1,1,13,11,0,1,-2,-2
1615918516139594,2,0,-10,-14,0,2,-3,-2
1615918516139594,-2,2,11,8,-2,0,8,2
1615918516151586,-2,-5,-25,-29,-3,-5,-7,-3
1615918516151586,-2,0,1,21,-2,0,1,-2
1615918516160538,0,-1,7,8,-1,-6,-8,-2
1615918516160538,0,-2,-9,-18,-4,-3,7,-1
1615918516175499,-2,-3,0,19,1,9,10,0
1615918516175499,-3,-4,-19,-25,-2,-2,-24,-1
1615918516177518,-2,-1,8,9,0,-9,4,1
1615918516177518,0,0,2,9,-4,-4,-1,-2
1615918516197751,-2,-2,-5,-7,-1,4,4,0
1615918516197751,0,-3,-9,-14,-1,1,1,-2
1615918516199745,-1,-3,-11,5,-1,0,-8,-1
1615918516199745,1,4,14,6,2,2,4,1
1615918516211742,-1,-4,-13,-10,2,-1,4,0
1615918516211742,-2,4,9,27,-2,-9,-12,-2
1615918516220690,0,-3,-23,-12,0,4,-5,-2
1615918516220690,0,0,16,-8,-1,-2,7,2
1615918516235675,-1,0,-3,-7,0,4,-4,0
1615918516235675,1,3,24,6,-1,1,8,1
1615918516237669,-1,-1,-9,0,-1,-3,6,0
1615918516237669,-2,0,2,-2,-2,-9,-17,-5
1615918516257591,-1,0,2,6,-4,-1,-1,-2
1615918516257591,-2,-2,6,5,0,2,6,-1
1615918516259587,2,-2,-6,-10,1,3,-1,1
1615918516259587,-2,1,7,21,-1,-4,5,-2
1615918516280554,1,0,9,-6,-2,-3,-6,-1
1615918516280554,-1,1,7,2,-3,3,0,-2
1615918516282553,-2,-2,-2,2,0,-6,1,0
1615918516282553,-3,-6,-28,-23,-1,4,1,-1
1615918516303500,-2,-3,-7,0,0,-3,-4,-3
1615918516303500,-1,0,10,13,1,4,11,0
1615918516304466,-2,-1,-5,-14,-3,1,-8,-1
1615918516304466,1,5,17,14,0,-4,-8,2
1615918516318428,-1,-4,-9,-5,-3,-8,-3,-2
1615918516318428,1,1,18,11,1,1,2,1
1615918516319426,-2,-3,-13,-45,-3,0,6,-3
1615918516319426,2,7,67,57,2,0,2,0
1615918516340370,0,-1,-11,-15,-3,-2,-1,2
1615918516340370,-2,-4,-15,-8,-4,-5,-2,-2
1615918516342365,-2,-2,-1,-4,0,-2,-7,-2
1615918516342365,-3,-4,-4,-10,-3,4,1,-2
1615918516355354,1,1,-3,6,-1,-2,-1,-1
1615918516355354,0,2,14,-2,0,-2,-1,-2
1615918516357325,0,0,7,19,-1,-1,-1,0
1615918516357325,-3,-9,-42,-60,-3,-2,3,-5
1615918516378268,0,6,43,43,5,0,5,4
1615918516378268,-2,-3,-12,-3,0,2,-7,0
1615918516379265,-1,3,26,25,0,-5,1,1
1615918516379265,-2,-2,-24,-19,-1,-1,1,-2
1615918516400210,-3,-4,-14,-22,0,-2,4,-2
1615918516400210,0,-3,-13,-7,-2,-2,0,1
1615918516402204,0,2,21,21,1,2,1,-2
1615918516402204,-1,-2,-1,-17,-2,0,-5,2
1615918516415170,2,0,9,17,-1,-1,-7,-2
1615918516415170,-3,-2,-16,-10,-1,-3,-2,-1
1615918516422151,1,2,24,24,0,0,-2,-2
1615918516422151,-3,-3,-17,-15,-3,0,7,-4
1615918516438108,-1,-3,-20,4,-1,6,7,0
1615918516438108,0,2,1,0,1,-5,-12,-2
1615918516440103,-2,1,2,1,-1,-2,-1,-1
1615918516440103,-3,-4,-16,-2,-2,-3,-3,-3
1615918516461071,-3,-1,20,-9,-2,-3,-1,-2
1615918516461071,0,-2,-4,-6,-1,0,7,-2
1615918516462045,-4,-6,-31,-7,3,3,-5,-1
1615918516462045,0,3,12,6,-3,-3,-2,0
1615918516475011,0,-2,-6,8,0,-1,-4,0
1615918516475011,1,-3,-2,-15,-1,1,1,0
1615918516482017,0,-3,-2,-9,-1,-1,-6,-1
1615918516482017,0,4,34,27,2,0,-1,-4
1615918516497974,-2,-2,-28,-33,-3,-1,4,0
1615918516497974,-3,-2,11,4,-1,-1,-9,-2
1615918516499944,-1,-2,-14,-8,-3,-4,9,2
1615918516499944,0,0,10,1,-2,3,-27,-3
1615918516520911,-4,-3,-13,-10,0,-3,-5,-1
1615918516520911,0,2,18,9,-1,1,4,2
1615918516521884,-3,-3,-16,-8,-5,-6,-2,-5
1615918516521884,0,-2,-13,-1,-2,-3,5,1
1615918516534876,2,1,14,1,-2,0,-2,-1
1615918516534876,-3,-5,-25,7,0,3,3,0
1615918516541832,-1,0,6,2,-1,1,-3,-2
1615918516541832,3,-1,1,5,1,1,9,5
1615918516557789,-2,-1,-10,-2,2,4,-7,-4
1615918516557789,-2,1,8,-18,-3,-5,9,-1
1615918516559784,-1,0,1,11,-2,-3,-5,0
1615918516559784,-1,-3,-22,-15,-2,0,1,0
1615918516580621,-2,-2,2,4,0,2,1,-1
1615918516580621,1,1,4,8,3,-5,-3,-2
1615918516582641,-2,-2,-6,-7,-1,0,0,0
1615918516582641,-3,-1,10,-6,-1,-5,0,-3
1615918516594610,3,2,9,19,1,1,-5,1
1615918516594610,-1,-7,-25,-31,-4,-1,4,-3
1615918516601565,2,4,31,29,2,3,4,1
1615918516601565,-1,-2,-3,-8,-1,1,3,-2
1615918516618520,-1,1,5,-6,-4,-4,-3,-4
1615918516618520,0,4,17,9,-3,-5,-2,2
1615918516619518,-1,-4,-22,-11,-1,0,-3,-2
1615918516619518,-1,1,-2,0,0,0,-5,-1
1615918516640671,-1,1,30,14,-2,4,1,-3
1615918516640671,-1,-2,-15,-5,-1,0,6,0
1615918516642666,0,-4,-22,-4,-1,2,4,-2
1615918516642666,0,1,9,4,5,2,-3,-2
1615918516654658,-1,3,11,10,-3,-8,-3,-2
1615918516654658,-3,-7,-31,-19,-3,2,-2,-2
1615918516661639,-1,4,25,17,0,-3,0,0
1615918516661639,0,-3,-27,-20,-5,-4,-1,-1
1615918516677660,2,3,34,19,2,3,2,4
1615918516677660,-1,-4,-9,-10,0,1,-1,0
1615918516679631,-3,-3,-5,-10,-3,0,3,-2
1615918516679631,0,-3,-1,14,0,-1,-8,1
1615918516700599,-2,-2,-18,8,-1,-4,-4,-1
1615918516700599,1,2,-6,-6,0,2,2,2
1615918516702594,0,0,0,-4,1,4,7,3
1615918516702594,-4,-5,-25,-5,-4,-6,-21,-6
1615918516714561,-2,-7,-31,-39,-2,-1,4,1
1615918516714561,2,7,51,37,1,-5,-8,-3
1615918516721543,-2,0,5,5,-1,-3,-6,-1
1615918516721543,-2,-3,-9,-7,-2,1,11,1
1615918516738473,-1,-2,-18,-15,-1,0,-1,1
1615918516738473,-2,-5,-21,-20,-3,2,-3,-1
1615918516739471,0,4,43,48,0,-2,-1,-1
1615918516739471,2,0,2,-4,1,-1,3,1
1615918516768393,-3,-4,-10,2,-1,-2,-3,-2
1615918516768393,-2,1,-9,-15,0,-5,1,-1
1615918516769391,-3,-6,-28,-33,1,-8,-6,-4
1615918516769391,2,8,27,30,2,7,11,3
1615918516774378,1,-1,2,0,3,0,-7,-1
1615918516774378,-1,-3,2,2,-1,1,-2,-4
1615918516783354,0,0,-10,-13,-1,-3,-5,-1
1615918516783354,0,-2,-7,3,-1,-1,3,-1
1615918516798314,-1,-1,5,0,-3,2,6,-1
1615918516798314,0,-2,-3,20,1,1,3,2
1615918516799311,0,-3,-9,-6,-1,1,-7,-2
1615918516799311,-2,-4,-5,-10,-4,-6,3,-2
1615918516820279,-2,-1,-5,4,-1,3,0,-2
1615918516820279,-1,-2,1,-19,-2,0,-5,-3
1615918516822250,1,5,27,23,-2,-6,-2,0
1615918516822250,-1,-5,-20,-16,-3,-5,9,-2
1615918516834242,-1,0,-3,0,1,-3,-19,-3
1615918516834242,2,0,10,10,-1,-1,-4,-2
1615918516843196,0,-5,-27,-26,-1,2,5,2
1615918516843196,-2,2,22,31,2,-2,-1,0
1615918516858154,0,-1,-5,-7,-2,-2,4,3
1615918516858154,-2,-4,-21,-9,-1,3,9,1
1615918516860149,-2,2,18,12,-1,-3,-13,-3
1615918516860149,1,1,-3,-14,0,3,3,2
1615918516881120,-1,0,-17,-17,-3,-3,-2,-1
1615918516881120,-2,-1,9,21,0,-3,-3,-3
1615918516882122,-1,0,0,0,-1,2,6,-2
1615918516882122,0,-1,6,-8,-1,3,3,0
1615918516894099,0,0,5,1,-3,-4,-1,-2
1615918516894099,-1,2,-9,-13,0,-2,-6,-1
1615918516903066,-2,-4,-8,-15,-7,-9,-5,-4
1615918516903066,-1,1,1,0,2,-2,-6,-3
1615918516918432,-1,-1,10,15,1,-2,9,-2
1615918516918432,-1,0,10,25,4,3,0,-3
1615918516919430,1,-2,-30,-27,-1,5,1,2
1615918516919430,-2,1,14,6,0,2,-5,0
1615918516940374,-1,0,-6,-13,-3,-7,3,-1
1615918516940374,-3,-3,-15,0,-3,-8,-6,-2
1615918516942369,-1,-3,1,-2,0,3,-2,-2
1615918516942369,-1,-5,-23,-29,-3,1,3,2
1615918516954360,0,3,14,10,1,0,0,-1
1615918516954360,-2,-1,3,12,2,7,11,2
1615918516963312,1,-1,-2,-2,-2,-3,-4,-1
1615918516963312,0,-1,9,0,-1,-2,-3,0
1615918516978296,-2,-3,-6,-3,1,6,0,-2
1615918516978296,2,0,-3,-12,0,-6,3,-2
1615918516979298,1,-2,-2,2,0,0,3,1
1615918516979298,-2,2,8,-2,-4,1,-5,-3
1615918517000238,-3,-2,-4,-2,0,-4,-2,0
1615918517000238,1,-2,12,4,-3,1,-2,0
1615918517002209,-2,-3,-17,-6,2,-2,-3,-2
1615918517002209,2,4,13,16,-1,-1,-1,-1
1615918517014200,0,-2,-11,2,1,4,0,1
1615918517014200,-2,-5,-20,-18,-5,-3,-6,-1
1615918517023153,0,2,12,17,1,2,3,1
1615918517023153,-4,-5,-13,1,-1,-6,6,-2
1615918517038136,0,2,4,-7,-2,1,-11,1
1615918517038136,-1,-2,-14,-14,-2,-4,-3,-1
1615918517040108,-3,-3,-15,-3,0,2,-2,-3
1615918517040108,2,2,14,1,4,5,8,1
1615918517061076,-2,-3,5,5,-2,-4,-3,-5
1615918517061076,2,3,3,5,1,2,2,4
1615918517062049,-4,-3,5,4,0,1,4,-1
1615918517062049,0,-3,-12,-6,0,-3,-5,-5
1615918517074018,-1,-1,4,7,1,0,-2,0
1615918517074018,-2,-4,-11,2,-1,-1,-5,-3
1615918517082993,0,3,22,3,-3,-1,0,-2
1615918517082993,-3,-4,-17,-6,-3,1,0,0
1615918517097952,1,-1,-5,-2,-1,0,0,1
1615918517097952,1,0,-1,-6,-1,1,5,2
1615918517099947,1,-1,-7,8,0,0,-3,-2
1615918517099947,-4,-3,-6,-4,-4,-9,-10,-5
1615918517120891,0,2,13,-5,0,0,8,0
1615918517120891,-2,-1,6,1,-3,1,-3,-2
1615918517121888,-1,-3,-17,-11,-7,-4,4,1
1615918517121888,-2,-4,0,3,-1,-1,-5,-1
1615918517134878,-1,1,-5,-14,0,-1,-3,-1
1615918517134878,-3,-3,-18,18,0,-2,0,-2
1615918517142857,1,6,36,7,1,2,-3,-1
1615918517142857,0,-1,4,9,1,1,6,0
1615918517157793,-2,-4,-14,-25,0,-5,-4,-3
1615918517157793,-2,-2,12,6,-1,1,-5,-3
1615918517159788,0,3,-20,-19,3,7,8,0
1615918517159788,-1,0,7,18,2,-11,-33,-2
1615918517180755,-2,0,1,0,-3,4,10,1
1615918517180755,0,1,6,-13,0,-4,-1,2
1615918517181728,-1,-6,-22,-4,-2,0,-3,-1
1615918517181728,2,1,6,-5,0,6,11,6
1615918517202700,-1,3,13,25,-1,-2,-8,-3
1615918517202700,-1,-2,2,3,-3,-4,-1,-3
1615918517204672,1,-1,-10,-22,-4,2,-1,3
1615918517204672,0,0,0,6,-1,-1,-1,-2
1615918517217632,-3,-5,-4,-14,-3,-2,-1,-1
1615918517217632,0,3,5,-4,-2,0,-3,-1
1615918517219641,-2,-3,3,0,-1,-8,-5,-5
1615918517219641,-1,-4,-20,-7,2,5,2,0
1615918517240572,1,1,6,-12,-1,2,8,4
1615918517240572,-3,1,9,13,2,1,0,-1
1615918517242567,-2,-1,10,-8,0,-3,-6,0
1615918517242567,-1,-2,-4,18,1,3,4,-1
1615918517263535,0,-3,-5,4,-6,-5,-8,-6
1615918517263535,0,1,-12,-29,-2,0,13,0
1615918517264508,-4,-5,-3,9,2,-5,-15,-3
1615918517264508,-1,-1,-14,-22,-4,-2,-1,-2
1615918517278469,0,0,11,11,-1,2,3,0
1615918517278469,1,2,6,27,1,-4,-8,-2
1615918517279494,-1,1,5,-1,1,3,4,-2
1615918517279494,-4,-4,-15,-18,-5,0,2,-5
1615918517300437,1,0,-2,-3,-1,-9,2,2
1615918517300437,-2,-1,-1,4,1,3,-33,-6
1615918517302430,-1,0,1,-6,-4,-4,6,1
1615918517302430,2,3,16,18,3,4,3,-1
1615918517323350,-2,-8,-32,-14,0,-2,-1,-4
1615918517323350,1,1,14,-4,-1,-1,6,2
1615918517324348,1,0,-3,9,0,-3,-3,1
1615918517324348,-2,1,1,-7,0,3,-3,2
1615918517345292,0,2,16,8,3,-4,-2,-2
1615918517345292,0,1,7,-5,0,1,7,3
1615918517347287,-1,-2,-12,6,-1,0,-3,-1
1615918517347287,-5,-1,-9,-7,-3,-4,8,-3
1615918517368230,1,3,16,20,1,5,-16,1
1615918517368230,-2,-5,-39,-19,1,-2,-2,-3
1615918517370224,1,0,23,10,-1,-1,1,0
1615918517370224,-1,-1,-9,-6,-3,-3,-1,0
1615918517391170,-3,-1,0,-1,-2,1,4,-1
1615918517391170,0,-3,4,-13,-1,-1,2,-2
1615918517393164,0,0,-6,16,0,1,-1,0
1615918517393164,1,1,31,8,0,1,-5,1
1615918517397177,-3,-7,-31,-21,-3,-6,0,-4
1615918517397177,1,5,31,35,-1,-4,0,0
1615918517404160,-3,0,-14,-16,-4,1,1,-4
1615918517404160,2,1,15,-1,-1,-3,1,1
1615918517421089,0,-2,-3,1,2,3,2,2
1615918517421089,-2,-3,0,-7,-2,1,1,1
1615918517422087,-1,-2,1,13,2,-1,9,-1
1615918517422087,-1,2,3,-2,-3,-6,-33,-6
1615918517444054,0,-3,-8,-5,-2,-8,0,0
1615918517444054,0,-2,-17,-10,0,7,4,-1
1615918517445054,-2,-2,13,18,-5,-6,-6,-2
1615918517445054,-3,-6,-18,-21,-4,0,10,-2
1615918517456993,3,2,11,10,3,-6,-3,1
1615918517456993,-2,-1,8,19,-1,-2,-3,-2
1615918517463998,0,-2,-25,-31,-5,1,-4,-2
1615918517463998,0,-1,-7,-6,-1,3,8,-2
1615918517481126,-1,-1,-4,-3,0,4,1,0
1615918517481126,-3,-2,-9,-16,-1,-4,8,-2
1615918517481942,0,4,19,15,3,-4,-27,-1
1615918517481942,0,-1,7,16,-1,-4,0,0
1615918517503910,-2,-1,-11,-11,-1,1,5,-2
1615918517503910,2,0,1,-15,-1,5,1,0
1615918517508873,-1,-2,-12,-3,0,0,5,0
1615918517508873,1,4,21,14,1,-2,0,2
1615918517517849,0,0,18,14,-2,0,-4,0
1615918517517849,2,1,-23,-2,-1,2,7,0
1615918517523833,-3,-1,7,-8,-2,-6,-11,-2
1615918517523833,-1,-6,-16,-12,-2,-1,2,-3
1615918517540789,-2,-1,-8,-4,0,2,2,-1
1615918517540789,-3,-5,-22,-33,-3,-6,-7,-5
1615918517541818,2,6,44,24,1,-1,14,1
1615918517541818,-2,-2,-15,-4,-1,-2,-16,-2
1615918517562752,2,2,2,9,1,1,-3,1
1615918517562752,-2,-1,-13,-10,-1,1,-2,0
1615918517564724,0,-1,-14,-20,-5,-6,-1,-1
1615918517564724,0,1,13,9,0,-2,2,-1
1615918517577689,-1,0,1,13,-3,-3,-4,-1
1615918517577689,-3,-4,-3,-4,-2,-3,-2,1
1615918517584669,0,-4,-15,-9,3,11,8,0
1615918517584669,0,1,-8,4,-1,-4,2,0
1615918517600651,-2,-2,-7,-13,-5,-6,-7,-1
1615918517600651,0,-2,21,23,1,0,0,-1
1615918517602622,0,2,3,1,0,-2,2,1
1615918517602622,0,-2,-7,-23,1,1,6,-1
1615918517623566,-4,-2,6,11,0,2,-16,-7
1615918517623566,1,4,27,17,-2,-8,-10,-1
1615918517624564,-4,-6,-20,-19,-1,-1,0,-1
1615918517624564,-1,-1,2,-1,0,0,1,0
1615918517637529,0,-2,11,9,0,0,6,-1
1615918517637529,0,-1,-3,-23,0,2,0,-1
1615918517644510,0,1,12,29,0,-2,-3,1
1615918517644510,1,-2,-15,1,-2,1,7,2
1615918517668469,-4,-3,-14,-16,-3,-1,2,-2
1615918517668469,-1,0,8,6,-1,-1,-4,-2
1615918517669444,-4,-5,-23,-20,-2,-3,-3,-3
1615918517669444,0,-2,1,8,-1,-2,1,1
1615918517682437,0,-1,-9,-5,-6,-9,5,-1
1615918517682437,2,1,1,0,-1,2,-11,-1
1615918517689414,-3,-1,-6,0,1,-1,0,-3
1615918517689414,-3,-5,-14,-14,-3,-2,2,-1
1615918517696371,0,1,1,21,0,5,1,-1
1615918517696371,-3,-2,-5,4,-2,-14,5,-1
1615918517705348,0,-1,-7,-12,-3,-1,-2,1
1615918517705348,-2,0,16,16,0,1,-10,-2
1615918517720332,-2,-3,-20,-26,-1,3,6,-2
1615918517720332,-1,-2,0,6,-1,1,3,3
1615918517722303,3,1,-2,2,-1,2,0,2
1615918517722303,-1,0,0,-4,1,-1,0,-2
1615918517743270,-1,0,-1,-6,1,0,5,2
1615918517743270,0,-2,-1,2,0,1,-17,-3
1615918517744243,-2,-4,-8,0,-3,-1,3,-2
1615918517744243,3,5,12,-7,0,0,2,1
1615918517757209,0,2,16,9,2,-1,-5,-1
1615918517757209,0,0,4,16,1,-2,4,0
1615918517766209,-1,-1,-13,-20,0,4,1,0
1615918517766209,-3,-5,1,18,-2,-3,-1,0
1615918517781144,1,0,6,-11,3,2,1,0
1615918517781144,0,0,-2,7,-1,0,4,0
1615918517782141,-1,-3,-6,-12,-4,-4,-7,-5
1615918517782141,0,1,3,2,3,5,1,0
1615918517803112,-3,-2,-13,-7,-4,-7,0,-3
1615918517803112,-2,-8,-10,-9,0,2,-5,0
1615918517805104,1,6,27,27,0,0,-2,-1
1615918517805104,-2,-2,-5,-4,-1,-3,-2,-2
1615918517817073,-1,-4,4,0,-4,0,-2,-2
1615918517817073,-1,-4,-18,-24,-2,-1,1,-1
1615918517826024,0,0,-1,9,3,2,4,-1
1615918517826024,0,0,-7,-14,-3,-7,-4,-1
1615918517840449,5,5,12,7,2,4,0,3
1615918517840449,-4,0,13,7,-4,-4,5,-3
1615918517842443,-1,-3,-7,-6,-1,1,-1,-1
1615918517842443,-1,-2,-6,-1,1,1,-1,-2
1615918517863412,1,0,13,4,-1,-8,-4,1
1615918517863412,0,2,0,-2,2,-1,-2,-3
1615918517864385,-2,-4,-11,0,-4,-6,-3,-1
1615918517864385,-3,-4,-2,-3,-2,0,-1,-1
1615918517876399,-4,0,1,18,-1,2,3,-1
1615918517876399,0,-1,4,-3,1,3,10,1
1615918517885423,-2,-3,-4,-10,0,-6,-27,-2
1615918517885423,0,-2,-6,3,-2,0,9,0
1615918517900409,0,-4,-14,-20,1,2,-4,-2
1615918517900409,-2,-2,7,19,-2,1,0,-2
1615918517902379,2,2,5,-2,4,-2,7,1
1615918517902379,0,-4,-26,-36,-3,-2,-1,-1
1615918517923342,-3,-1,27,18,1,0,-5,-1
1615918517923342,0,2,9,5,-3,-8,-1,-1
1615918517924339,0,-1,13,1,-4,2,5,-1
1615918517924339,-2,-1,-8,-17,-1,1,-3,-2
1615918517936331,0,-2,-13,-1,-1,-5,0,-1
1615918517936331,1,-2,-17,-23,0,1,-1,0
1615918517945282,-3,-1,26,27,0,-3,11,1
1615918517945282,2,5,2,2,-4,1,-8,-1
1615918517960270,-2,-4,-21,-20,-3,4,1,-2
1615918517960270,1,1,20,20,2,-1,-4,0
1615918517962237,-2,-3,-9,-22,-2,-8,0,-1
1615918517962237,-2,-3,11,7,0,0,2,-1
1615918517983060,1,-2,-10,-11,-1,-3,-6,-1
1615918517983060,1,5,27,33,2,5,6,3
1615918517985054,-2,0,5,-12,2,3,5,-2
1615918517985054,-1,-3,-15,-1,0,-2,-3,-1
1615918517997046,-5,-3,-11,-6,-1,-2,-3,-3
1615918517997046,1,2,1,0,-1,-2,10,1
1615918518005999,-2,1,1,-2,-1,-3,-17,-2
1615918518005999,0,0,2,-6,-1,-4,-3,-3
1615918518020958,0,-1,12,2,0,5,2,0
1615918518020958,0,0,-16,1,-2,1,-2,-2
1615918518021956,1,0,10,12,0,6,6,4
1615918518021956,-2,-1,-6,4,-1,-1,-2,0
1615918518042927,-2,-4,-13,-13,-5,-6,-1,-2
1615918518042927,-1,2,11,-13,-3,1,3,0
1615918518044895,2,4,9,16,0,-8,-2,-4
1615918518044895,-3,-4,-18,-3,-2,2,-6,-1
1615918518056863,1,4,24,5,-1,4,2,0
1615918518056863,-3,-10,-29,-20,-3,-3,-6,-3
1615918518065839,-1,-3,-21,-14,0,0,0,-1
1615918518065839,-2,3,19,15,-3,-6,-1,-2
1615918518080823,0,1,-1,18,0,-1,8,3
1615918518080823,-4,-4,-5,-15,-2,-2,-24,-2
1615918518081796,-2,-2,-10,-9,0,2,-2,-1
1615918518081796,-1,-2,4,7,-2,-3,2,-2
1615918518102740,-1,0,-8,1,0,-2,-2,-2
1615918518102740,-1,3,27,18,0,1,4,-2
1615918518104735,0,-1,-17,-8,-3,-2,3,1
1615918518104735,-2,-1,12,10,1,0,-6,-2
1615918518116702,-1,-5,-23,-16,0,-1,-5,-4
1615918518116702,-3,-4,-6,-12,-5,-3,0,-1
1615918518125679,0,-1,10,5,2,-1,0,-1
1615918518125679,-1,-2,-19,-36,0,4,3,1
1615918518140639,0,7,52,48,1,2,-3,1
1615918518140639,-1,-3,-8,-19,0,-7,2,1
1615918518142635,0,-1,-11,-9,-4,1,2,-2
1615918518142635,0,4,25,15,-1,-3,-1,0
1615918518163578,-2,-1,2,-2,-2,-2,-1,-4
1615918518163578,-2,-1,-12,-3,4,-2,-8,-4
1615918518164575,-2,-2,-5,-13,-4,1,9,3
1615918518164575,3,0,-15,4,2,2,4,1
