timestamp,emg1,emg2,emg3,emg4,emg5,emg6,emg7,emg8
1615918123916736,2,10,23,-1,-2,-7,4,1
1615918123916736,-5,-7,-19,-4,-2,-9,-8,-2
1615918123918730,-1,3,-6,-2,0,3,-1,-1
1615918123918730,-2,0,11,5,-4,0,-2,-2
1615918123939929,-1,-5,-19,-1,3,6,3,-1
1615918123939929,-4,-4,-31,-4,-2,-4,-1,-3
1615918123941306,3,6,30,5,1,0,0,3
1615918123941306,-1,-4,-16,-3,0,1,-2,-3
1615918123953613,-2,-4,-11,-5,0,5,1,0
1615918123953613,2,8,4,2,-6,-5,3,2
1615918123962289,-3,-5,-25,-4,-4,-11,-4,-4
1615918123962289,0,-4,-9,-4,0,2,2,-3
1615918123977274,-1,-3,-9,1,0,-1,-5,-2
1615918123977274,3,8,-4,-1,6,8,0,0
1615918123978247,1,5,35,1,-5,-6,-1,0
1615918123978247,-1,-1,-1,1,-2,3,2,3
1615918124000008,-2,-1,-13,-1,2,-2,-3,-2
1615918124000008,-1,-8,1,-1,5,0,-4,-2
1615918124001270,-3,0,-18,-3,-1,-1,1,-2
1615918124001270,-1,2,-2,-3,-3,-2,0,-1
1615918124022538,0,-3,0,-2,0,-4,1,0
1615918124022538,-1,-2,-6,-1,-7,-3,-1,-3
1615918124023538,1,0,7,1,2,5,-2,0
1615918124023538,-1,-1,-10,-2,1,-1,1,0
1615918124037337,-3,-1,7,-3,-5,-3,-2,-2
1615918124037337,1,11,-5,3,3,3,2,3
1615918124043516,-2,1,11,-1,3,0,3,-5
1615918124043516,1,1,-18,-4,-2,4,-3,-1
1615918124059365,-1,-3,-5,3,-1,-4,-2,-3
1615918124059365,0,-5,-15,-3,1,-6,-1,1
1615918124061336,-3,-8,-30,-2,-2,1,-1,0
1615918124061336,-3,-2,5,-2,4,5,4,-3
1615918124082341,0,5,12,2,0,3,-2,0
1615918124082341,-2,-4,0,-5,-2,-1,-3,-2
1615918124088545,1,-4,4,-2,-2,-2,-1,2
1615918124088545,-2,1,5,4,-4,-14,-3,-1
1615918124096909,2,4,16,-2,-1,7,0,2
1615918124096909,-4,-5,-4,-2,-2,-1,1,-3
1615918124103653,1,9,20,0,2,0,-1,0
1615918124103653,-1,-4,6,-7,-5,-6,-1,1
1615918124119197,-2,-4,17,8,0,-1,-1,-3
1615918124119197,1,5,19,1,-1,4,1,0
1615918124121118,-3,-4,-16,-2,-2,-1,-6,-2
1615918124121118,0,1,-2,-3,-1,-15,1,0
1615918124142301,-1,-3,-33,0,1,4,-1,0
1615918124142301,0,-6,8,-2,-2,2,-1,-2
1615918124143298,-2,-12,-19,-4,-3,-8,-2,-2
1615918124143298,3,17,60,8,2,8,0,1
1615918124156282,-4,-2,-9,2,-1,-4,1,-2
1615918124156282,-1,-5,-22,-4,-2,1,-1,0
1615918124163277,0,1,20,5,-3,-2,-2,-1
1615918124163277,-4,-4,-7,0,-2,2,2,0
1615918124179225,-1,-2,2,-4,-2,-1,-3,-4
1615918124179225,0,0,-1,2,0,3,-1,-1
1615918124181195,-2,-7,-21,-1,2,-3,2,0
1615918124181195,-2,-2,25,0,-2,-1,-3,-2
1615918124202591,0,-3,-15,1,0,11,-1,-1
1615918124202591,-2,-3,-9,-3,1,-15,0,0
1615918124203591,2,6,0,-3,-1,3,0,1
1615918124203591,-2,-6,3,4,0,5,-3,-3
1615918124216903,0,-3,5,-1,0,0,2,1
1615918124216903,-2,2,-1,-3,-3,-6,-5,-1
1615918124223463,-1,2,9,-3,0,5,1,0
1615918124223463,1,-4,-4,-3,-1,-5,-1,-4
1615918124240034,-3,-1,13,2,-1,-4,-1,-2
1615918124240034,1,1,-2,1,-2,1,0,0
1615918124241268,0,-1,5,2,1,2,-1,-3
1615918124241268,-1,-3,-37,-6,-1,-5,-2,-2
1615918124262332,-2,-4,12,-3,-1,1,1,0
1615918124262332,-2,-3,-10,-1,-2,-5,-7,0
1615918124263330,1,2,10,1,-1,1,1,0
1615918124263330,-5,-5,-10,-2,-5,-10,-3,-2
1615918124276654,0,4,-34,-1,-4,1,-2,1
1615918124276654,-1,-6,-10,-3,0,-2,1,-3
1615918124283623,-1,3,-13,-6,2,10,0,-1
1615918124283623,1,0,1,2,-2,-4,-3,1
1615918124299705,-4,-8,-16,-8,0,-6,-3,-1
1615918124299705,-4,0,23,1,-1,3,-3,-3
1615918124301684,0,-4,-11,2,0,0,3,0
1615918124301684,1,5,20,-3,0,-4,-2,2
1615918124321788,-2,-3,-12,-4,0,-3,-8,-4
1615918124321788,-1,-1,14,-2,-4,-4,3,-2
1615918124323685,-1,-3,-14,-3,1,-5,1,0
1615918124323685,0,1,22,2,1,8,2,-1
1615918124336443,1,-3,41,-1,-1,-7,-2,-2
1615918124336443,1,4,-40,-1,-2,-4,-1,0
1615918124343596,-2,-3,-17,0,0,2,-3,-1
1615918124343596,-3,-2,-35,-5,0,-6,-2,-2
1615918124359478,-1,-3,-24,-7,-2,4,2,-2
1615918124359478,1,4,33,5,0,1,1,0
1615918124366945,1,-3,33,2,-1,-3,1,-1
1615918124366945,-1,-1,-27,-2,5,1,0,0
1615918124382568,-2,-3,-2,-3,-3,-10,-9,0
1615918124382568,-1,0,1,-1,-5,8,2,-4
1615918124383568,0,1,-4,-2,1,-7,-4,0
1615918124383568,-1,-3,3,-4,-3,-5,-2,-2
1615918124396596,0,9,43,6,1,3,3,0
1615918124396596,0,-2,3,-3,1,0,-2,-3
1615918124403716,-3,-2,-27,2,-2,-1,0,1
1615918124403716,1,-6,-25,-3,-1,11,1,1
1615918124420027,1,1,11,0,-2,-13,1,-1
1615918124420027,-2,-3,-15,1,4,-2,-2,-3
1615918124421270,-2,-3,-12,-4,-1,2,0,-4
1615918124421270,1,4,13,5,-4,-4,-2,-2
1615918124442539,-2,-1,-1,1,3,9,2,0
1615918124442539,-2,0,-1,-2,-2,-3,3,1
1615918124443538,-1,-7,-6,-4,-7,-14,-11,-2
1615918124443538,-2,-1,-6,-2,-3,-2,-2,0
1615918124464250,-2,-1,-18,-1,0,4,1,-4
1615918124464250,2,7,47,7,2,2,1,1
1615918124466244,-1,-1,13,-1,0,1,0,0
1615918124466244,-4,-10,-43,-4,-3,-1,1,0
1615918124479268,2,3,-6,0,-5,-2,-1,1
1615918124479268,0,-1,3,-2,1,3,-1,1
1615918124481257,-1,5,4,4,-1,-9,0,-2
1615918124481257,-1,5,10,-3,-2,2,-2,-1
1615918124502380,0,-5,-9,0,-1,3,1,0
1615918124502380,-3,-4,-43,2,1,-2,-1,-3
1615918124508329,-2,-2,6,-4,1,5,-1,-3
1615918124508329,-2,-3,7,-3,-1,-11,-9,-2
1615918124515333,2,3,-21,-8,-2,1,2,0
1615918124515333,0,4,44,4,0,-1,0,1
1615918124524435,0,-3,-4,-3,2,-2,4,1
1615918124524435,0,-6,-38,-2,-1,5,0,-3
1615918124539873,-3,-3,25,6,-1,-10,-4,-1
1615918124539873,-1,-3,-21,-8,-1,3,-1,-2
1615918124540763,2,6,43,4,-2,7,6,1
1615918124540763,-2,1,27,0,-2,-17,-4,-1
1615918124562323,-2,-5,-32,-1,-3,1,0,0
1615918124562323,-1,-2,-10,-2,-1,7,0,0
1615918124563348,-1,-3,-10,-2,-3,-4,-2,-3
1615918124563348,-1,-9,-8,-2,-1,4,0,-1
1615918124575497,1,10,48,2,-3,-1,3,-1
1615918124575497,-2,-5,1,-5,-1,-8,-9,-2
1615918124584389,-4,-3,-10,-2,-4,-4,0,-5
1615918124584389,2,-1,-18,-2,3,3,1,2
1615918124599670,-1,-3,20,5,0,-1,-1,-1
1615918124599670,1,6,-4,-3,-1,4,2,1
1615918124605779,-1,-3,1,0,-2,-1,-4,-1
1615918124605779,2,1,0,1,0,2,3,1
1615918124621737,-2,0,13,-5,2,4,-2,-1
1615918124621737,-3,-4,-16,-4,-4,-3,-2,-1
1615918124623732,0,-3,10,2,-1,-11,1,1
1615918124623732,-2,1,12,-1,1,1,-5,-3
1615918124644322,2,-3,-27,-5,-3,-4,-2,-2
1615918124644322,0,-6,-20,-3,0,9,0,-1
1615918124646284,0,-2,25,3,-2,-11,-4,0
1615918124646284,-3,4,35,3,-3,2,1,0
1615918124659361,0,4,1,4,3,3,-2,2
1615918124659361,-1,-3,-7,-6,0,-6,-2,-2
1615918124661326,-1,-4,-10,-2,5,14,3,-1
1615918124661326,-2,2,13,3,-6,-8,2,-2
1615918124682589,0,-4,-9,-3,-2,2,-2,-1
1615918124682589,-1,-1,7,2,0,-5,2,-1
1615918124683589,-1,4,9,0,0,6,-3,-1
1615918124683589,1,0,1,0,2,4,-1,-1
1615918124695383,-3,-6,-20,-4,-1,0,1,-1
1615918124695383,-1,0,6,6,-4,-7,1,-2
1615918124704396,1,1,-13,-1,0,-6,-6,0
1615918124704396,-4,2,1,-4,1,2,0,0
1615918124720030,1,1,14,6,0,3,0,-1
1615918124720030,-2,-5,-27,-9,-1,0,1,0
1615918124721295,0,0,3,-1,-3,0,-1,0
1615918124721295,0,-4,2,0,1,6,2,1
1615918124742619,-2,0,4,-3,-2,-5,1,-1
1615918124742619,-5,-3,15,-5,-1,-8,-4,-5
1615918124743623,2,4,17,6,-4,2,0,1
1615918124743623,1,2,-24,-1,-1,2,1,-1
1615918124755309,-2,-5,-13,0,-1,0,-2,1
1615918124755309,1,-2,7,0,0,-1,3,0
1615918124764318,-4,-7,-1,-5,1,1,-1,-2
1615918124764318,3,6,25,7,-3,-3,1,1
1615918124779513,-1,-3,-7,-3,-1,-4,-8,0
1615918124779513,1,-2,-8,-3,-2,5,0,0
1615918124781732,-3,-3,-20,-2,1,2,2,-2
1615918124781732,-3,-2,-11,-4,0,-3,-2,-1
1615918124802591,-1,-1,-16,-1,1,-1,1,-2
1615918124802591,-3,-3,-23,-3,-7,-4,-1,-2
1615918124803591,1,4,17,1,0,2,2,-1
1615918124803591,1,2,10,1,-1,-5,-4,-2
1615918124815582,-1,2,5,1,-1,-5,-1,-2
1615918124815582,-1,-5,-3,3,5,4,2,1
1615918124831968,-1,3,-5,-2,-2,-1,0,-2
1615918124831968,-2,-7,-29,-6,-5,-15,-2,0
1615918124840025,-2,-2,8,-3,0,4,1,-2
1615918124840025,-2,4,12,2,2,1,0,0
1615918124841271,-2,-5,-25,-4,-1,1,-5,1
1615918124841271,0,-2,0,-3,-3,4,0,-2
1615918124862307,-1,5,4,-4,-4,-6,0,0
1615918124862307,2,5,31,6,-2,3,-1,2
1615918124863333,0,-2,-19,-3,1,-1,-1,-1
1615918124863333,0,1,25,1,0,-2,-1,0
1615918124875435,-2,1,-10,-4,2,14,0,2
1615918124875435,-4,-8,-7,-8,-5,-18,-2,-5
1615918124884630,-2,0,29,10,-4,4,-1,-3
1615918124884630,0,6,21,1,2,-15,-10,-1
1615918124899499,-3,-6,-24,-6,-2,2,0,-1
1615918124899499,-1,2,38,3,1,3,-2,1
1615918124901494,1,-3,-44,-4,1,-2,-1,-2
1615918124901494,-2,-4,12,2,-2,7,2,0
1615918124922435,2,1,-11,-5,2,1,6,2
1615918124922435,0,5,4,4,-4,-7,-3,0
1615918124923432,-2,-5,-13,-8,-2,-4,-3,-2
1615918124923432,2,5,11,7,-5,3,-1,-2
1615918124944376,-2,-7,-18,-5,1,-10,-4,-4
1615918124944376,0,0,-35,-5,3,6,1,1
1615918124946371,-3,-3,-11,-1,4,0,-3,-1
1615918124946371,-1,1,7,-5,0,6,2,-1
1615918124959337,1,1,3,0,-5,-9,0,1
1615918124959337,1,1,16,2,-4,4,-3,-1
1615918124961330,-2,-3,9,1,-1,-5,2,-1
1615918124961330,-1,3,-16,-2,2,7,-1,-1
1615918124982275,-1,0,-20,-3,-1,-7,-5,-4
1615918124982275,-1,-1,-6,-1,0,-3,1,1
1615918124983296,-2,1,4,-3,-3,6,-1,-1
1615918124983296,-1,-8,-9,1,2,-5,3,0
1615918125004216,-2,-1,9,4,-2,-1,0,2
1615918125004216,1,-1,4,1,-1,-2,-3,-5
1615918125006210,0,-1,-11,-4,0,-3,1,1
1615918125006210,-2,1,-16,-9,-2,-3,-1,-4
1615918125019200,-1,-1,29,6,2,-2,-4,-2
1615918125019200,-4,-1,20,0,-2,-1,-2,-1
1615918125021171,1,0,-26,-1,-1,0,0,-1
1615918125021171,-1,0,10,-1,-2,1,1,0
1615918125042115,0,2,-3,-1,-1,-4,1,-3
1615918125042115,0,3,-21,-3,0,-1,1,0
1615918125044110,0,1,28,1,0,-2,1,0
1615918125044110,0,0,27,4,-2,-7,-9,-2
1615918125064056,-2,-3,-9,-2,-3,4,0,1
1615918125064056,-2,-2,-1,-2,3,4,-1,-1
1615918125066050,-1,2,-9,0,-3,-10,-3,0
1615918125066050,-3,-6,-26,-4,2,2,2,-1
1615918125079359,0,-2,17,0,0,4,1,-2
1615918125079359,-1,-8,4,-2,-5,-5,-1,-2
1615918125085345,0,4,4,-3,-3,-2,-1,0
1615918125085345,-2,-6,35,8,0,3,-1,-1
1615918125109255,6,12,-28,-2,-2,5,1,4
1615918125109255,-3,-5,-5,-4,-4,-7,-1,-6
1615918125111249,-3,-1,-15,-1,-3,-3,-2,-1
1615918125111249,-1,0,23,1,-1,0,0,1
1615918125124290,-4,-7,-3,3,1,-1,0,-3
1615918125124290,1,-2,-14,-4,1,7,2,0
1615918125126290,3,3,13,1,3,0,1,2
1615918125126290,-1,-1,-33,-6,-4,-4,-9,-4
1615918125139254,-3,-4,18,-5,-2,-13,-4,-3
1615918125139254,0,4,-14,3,1,0,-2,0
1615918125145237,1,-4,29,3,0,4,3,0
1615918125145237,-2,3,-25,-5,0,7,1,0
1615918125162191,-2,-1,12,3,2,1,0,0
1615918125162191,0,-9,-4,-4,-2,4,0,1
1615918125164187,-1,3,-16,6,-4,-11,-4,-2
1615918125164187,-2,-5,-24,-4,0,9,4,0
1615918125184160,-2,0,2,-3,-3,-3,-6,-1
1615918125184160,0,-3,-12,-3,2,-6,-4,-4
1615918125186127,-4,-7,-3,-4,2,12,1,-1
1615918125186127,1,7,5,2,-1,-14,-2,-1
1615918125199117,-3,-4,0,0,-7,7,2,1
1615918125199117,0,7,11,-1,-2,-5,0,2
1615918125206074,-1,1,4,-4,-1,-4,-1,0
1615918125206074,0,-4,11,3,-1,2,2,1
1615918125222057,-1,-5,-11,-4,2,-4,0,-4
1615918125222057,0,10,30,4,2,8,-2,0
1615918125224026,-1,-5,-12,-7,-2,-10,-2,-3
1615918125224026,1,4,21,4,1,-2,1,1
1615918125244994,-1,-1,-2,2,3,3,3,-1
1615918125244994,-2,-1,-11,-1,-2,3,-4,-2
1615918125245968,-1,-5,-25,-6,-2,2,0,-1
1615918125245968,-2,2,26,-1,-1,4,1,-2
1615918125258933,2,-4,-19,-3,-2,-7,-5,-1
1615918125258933,1,4,6,-3,2,3,5,2
1615918125265915,-2,-6,-31,-6,-2,-3,0,-2
1615918125265915,-1,-4,-9,2,1,3,-2,0
1615918125281871,0,11,58,1,0,3,2,0
1615918125281871,-2,-1,14,2,0,-6,0,0
1615918125283866,-1,-5,-28,-6,-3,-3,-4,-3
1615918125283866,-1,-7,-30,-4,0,2,0,0
1615918125304810,2,1,-6,1,1,2,2,0
1615918125304810,-1,-6,0,1,-3,-14,-5,-3
1615918125305831,0,3,21,2,3,2,0,-1
1615918125305831,-3,-8,-15,-6,0,0,-1,-1
1615918125318796,0,0,7,-1,-3,-3,1,0
1615918125318796,-2,3,-26,0,-1,2,1,1
1615918125325754,0,-2,21,2,2,0,-3,0
1615918125325754,0,4,-30,-4,-8,-9,0,-2
1615918125341712,-1,-3,-3,-5,-2,-8,-2,0
1615918125341712,1,0,29,7,-1,4,2,-1
1615918125343706,-1,-2,-6,1,-2,-10,-3,-2
1615918125343706,-1,-2,-30,-4,1,8,1,0
1615918125364205,3,2,-12,1,0,0,-1,-1
1615918125364205,-2,-6,13,-2,-3,-2,-1,-2
1615918125366199,0,6,17,0,-3,-4,-1,1
1615918125366199,-3,0,-5,-5,2,1,1,-3
1615918125378191,-2,-6,-10,2,-5,-5,-7,-4
1615918125378191,0,-8,-22,-5,-1,-6,1,0
1615918125387142,-2,7,17,3,0,9,2,-4
1615918125387142,-1,0,10,3,-2,-12,2,0
1615918125401578,1,2,-24,-8,1,10,-2,0
1615918125401578,-3,2,33,4,0,-3,-4,-3
1615918125403549,0,-6,-17,-1,-4,-1,-2,-1
1615918125403549,0,-3,26,1,1,2,-1,0
1615918125424493,-3,-2,13,0,2,-2,1,-3
1615918125424493,-1,-1,-20,-2,-2,-10,-2,1
1615918125426516,-1,-4,0,-5,2,10,1,0
1615918125426516,-1,0,14,3,-1,-6,-2,-2
1615918125438479,-2,-3,-20,-1,-2,-7,-2,-1
1615918125438479,-1,-1,-4,-4,-1,11,3,0
1615918125447432,1,2,37,7,-2,-14,-5,1
1615918125447432,-2,0,-7,-3,-2,1,-2,-1
1615918125462390,-3,-4,-7,-4,2,6,0,-2
1615918125462390,0,-2,-45,-7,-2,-2,1,2
1615918125463388,0,1,-4,3,-2,5,3,0
1615918125463388,0,2,38,1,-2,-6,-4,-1
1615918125484383,2,1,7,2,-1,0,-2,0
1615918125484383,-1,-3,-5,0,2,5,1,-2
1615918125486381,-2,-4,-27,-7,1,-1,-2,-1
1615918125486381,-1,-3,-6,0,-3,-6,-2,-1
1615918125498344,-2,-5,-8,-2,-2,2,-1,-3
1615918125498344,-1,-1,23,-1,4,2,-1,-1
1615918125507321,-2,-1,-7,2,-2,-3,-2,0
1615918125507321,-2,-4,-3,-1,-2,7,0,-1
1615918125522281,-2,-7,-12,0,-1,-5,1,-3
1615918125522281,1,7,-10,-2,-4,-8,-8,-3
1615918125523278,0,2,37,1,-2,-3,1,-1
1615918125523278,0,-6,-31,-5,-2,3,0,-1
1615918125544490,-1,2,4,0,0,6,1,2
1615918125544490,-2,-9,-40,-1,-4,-10,-3,-2
1615918125546444,0,3,21,-1,-2,2,-3,-2
1615918125546444,-2,-3,1,2,3,7,4,-2
1615918125558317,-2,0,-2,-3,-4,-20,-6,-2
1615918125558317,1,0,-2,-1,0,2,2,0
1615918125573276,-1,0,36,6,-3,1,-2,-3
1615918125573276,2,2,-17,-3,0,-1,-1,1
1615918125582295,-3,-4,-7,-3,0,5,1,0
1615918125582295,-1,6,22,1,-2,-2,-1,0
1615918125583251,-3,-6,-13,-3,-2,-1,5,-1
1615918125583251,1,1,-3,-3,1,6,-8,1
1615918125605001,-2,-3,27,2,-3,-12,1,-1
1615918125605001,1,3,25,1,0,7,0,-3
1615918125606265,0,4,17,3,3,-1,2,1
1615918125606265,1,-2,-15,-3,-1,-7,-2,-1
1615918125618262,0,8,1,1,0,3,-2,-1
1615918125618262,-4,-10,-1,-2,1,3,1,-1
1615918125627204,0,-3,-23,-5,-1,0,0,-1
1615918125627204,-1,-4,1,-2,-3,-7,-1,-2
1615918125642572,1,-4,-11,-1,1,2,0,0
1615918125642572,-1,4,13,2,-2,1,-3,0
1615918125643571,0,1,-42,-8,-2,0,-5,-3
1615918125643571,-3,-4,-2,2,0,-3,2,-2
1615918125664896,0,2,14,-3,-5,7,-5,1
1615918125664896,-1,-6,-4,-1,-1,-4,3,1
1615918125665869,-1,-7,-23,-6,-2,0,-1,-5
1615918125665869,-1,-1,-8,1,1,-6,0,0
1615918125677869,-2,5,7,-5,-3,1,0,-3
1615918125677869,-1,-5,-29,3,1,-3,2,-1
1615918125686848,0,3,-4,-1,3,5,-2,1
1615918125686848,1,-2,19,3,-3,0,2,-1
1615918125702603,-1,-2,-14,-4,-2,-5,-1,-2
1615918125702603,-3,-3,6,-6,-2,-5,-4,-3
1615918125703603,1,4,-7,0,-1,1,1,1
1615918125703603,-1,-4,-41,-9,-4,1,1,0
1615918125724547,-1,-1,-29,5,2,0,0,2
1615918125724547,3,8,-2,-3,-1,0,4,2
1615918125726543,-1,-6,-10,-8,-1,3,3,-3
1615918125726543,-2,-1,17,5,1,-7,-6,-2
1615918125738727,-1,-2,0,1,-1,-8,-4,0
1615918125738727,0,-1,8,-3,0,8,2,-1
1615918125746976,-3,-5,-19,-5,0,-3,0,-3
1615918125746976,0,5,21,0,-5,-6,-3,-1
1615918125762485,-1,-3,14,-1,2,6,2,-3
1615918125762485,1,1,-2,1,0,2,-4,0
1615918125763459,-2,1,14,0,-5,-20,-5,-2
1615918125763459,-4,-2,-19,-2,-2,-6,0,-2
1615918125785107,-1,-4,5,-1,-1,6,0,-1
1615918125785107,-1,3,-7,-1,1,-2,1,-2
1615918125786765,1,4,-3,-1,-2,9,3,2
1615918125786765,-2,-5,-11,2,1,3,-7,-2
1615918125798800,1,3,-6,0,-1,-4,2,0
1615918125798800,-3,-1,-6,-1,-3,1,-2,-1
1615918125806855,-3,-1,8,-2,-2,-4,-2,-2
1615918125806855,0,0,10,-2,-4,2,3,-1
1615918125821743,-2,-7,-24,-6,1,-1,-2,-2
1615918125821743,1,3,34,4,-1,3,-1,-1
1615918125823739,2,0,0,2,-1,-5,-1,1
1615918125823739,0,1,2,-5,3,8,0,-2
1615918125844351,-2,4,39,3,-8,-14,-1,1
1615918125844351,-1,-5,-34,-8,-2,5,-1,-3
1615918125846279,0,3,37,8,1,0,-1,2
1615918125846279,-2,3,-6,-6,-2,3,2,1
1615918125867357,-3,-2,2,4,0,5,1,-3
1615918125867357,1,5,14,0,0,-9,-7,-2
1615918125868386,-3,-11,-23,-5,-2,1,1,-4
1615918125868386,2,11,21,2,1,-2,0,0
1615918125882598,-2,-4,-20,-1,1,2,-2,1
1615918125882598,-2,-8,-4,-4,-3,3,-2,-2
1615918125883391,-3,-4,-27,1,0,5,-1,1
1615918125883391,-2,1,23,1,0,-2,0,-1
1615918125905028,1,-1,2,-2,-4,-12,0,2
1615918125905028,-5,-3,4,4,-5,-3,-6,-7
1615918125906263,2,1,12,-2,6,7,2,1
1615918125906263,0,-2,-15,2,-3,0,-3,1
1615918125927179,0,1,-7,-5,3,1,3,-1
1615918125927179,-3,-8,2,4,3,3,2,2
1615918125929175,-2,-2,-11,-1,-2,-6,-4,-2
1615918125929175,1,-2,-20,-4,0,-5,2,-3
1615918125942281,3,10,41,5,0,4,-2,0
1615918125942281,0,-3,-42,-5,-2,-1,1,2
1615918125943278,-2,-1,25,6,-4,-1,1,-1
1615918125943278,-3,-7,-23,-3,-5,-4,0,-1
1615918125964339,0,1,-21,-5,-1,1,-6,-2
1615918125964339,2,-3,-21,-3,1,-3,-1,0
1615918125966767,1,7,40,2,0,-2,-3,-4
1615918125966767,-1,-2,0,0,1,5,-2,1
1615918125988113,0,-1,-8,-3,-4,7,1,-2
1615918125988113,-4,-2,3,-1,-3,-23,-2,-3
1615918125989242,-1,2,21,3,0,2,-10,-1
1615918125989242,-2,-7,-13,2,1,2,2,-1
1615918126001948,0,6,11,-1,0,-1,-1,-1
1615918126001948,-2,1,12,3,0,4,4,0
1615918126008057,-2,-6,-44,-7,1,2,1,0
1615918126008057,1,4,17,2,-3,-6,-2,-2
1615918126024138,-1,-5,-2,-1,-1,-8,-3,-5
1615918126024138,1,4,-6,-2,-7,-2,1,-1
1615918126026133,-2,-4,-51,-11,1,7,3,1
1615918126026133,-3,-3,32,1,-1,-7,0,-3
1615918126047698,-3,0,-12,-2,-1,8,-2,-2
1615918126047698,1,-1,6,2,3,-6,-2,0
1615918126048697,0,0,-20,-3,-3,5,5,-1
1615918126048697,1,5,3,-3,-1,-5,-6,0
1615918126061345,-2,-4,15,-3,-4,-4,-1,-1
1615918126061345,1,1,7,5,-2,5,0,2
1615918126068819,-1,1,26,0,-2,-6,-1,-4
1615918126068819,-3,-2,0,5,2,8,4,-1
1615918126085081,-2,-6,-21,-3,-1,-8,-3,0
1615918126085081,-2,-2,0,0,3,4,-1,-2
1615918126086234,-1,1,15,1,-3,-7,-3,-2
1615918126086234,2,4,12,-2,-1,2,2,-1
1615918126107311,-2,-9,-36,-4,2,-4,-2,-2
1615918126107311,-2,0,9,-2,-3,-7,-1,0
1615918126108313,1,5,-4,2,0,6,-2,1
1615918126108313,-3,-4,-8,-6,0,-3,-2,-1
1615918126121997,-1,4,26,6,-3,2,1,-2
1615918126121997,-1,-3,-1,-6,-1,2,-1,0
1615918126127987,-2,-5,6,-2,-2,-6,0,-2
1615918126127987,-1,-3,-11,-2,-2,1,-2,-3
1615918126144608,2,2,15,1,2,1,1,2
1615918126144608,1,2,23,7,-5,-2,-2,-2
1615918126146623,-4,-1,-16,-5,-4,-3,1,-1
1615918126146623,0,-5,12,1,-2,3,-1,1
1615918126174796,1,4,40,0,-4,-6,-2,1
1615918126174796,1,0,-12,-5,-2,1,2,1
1615918126175794,-1,-5,-5,-1,1,4,1,-1
1615918126175794,-3,8,0,1,-5,-8,0,-2
1615918126182015,-1,-4,-17,-6,-4,4,-2,-2
1615918126182015,-2,4,15,2,3,8,-4,-3
1615918126188797,0,-2,-13,-2,0,-21,0,1
1615918126188797,-1,-4,-31,-3,-2,3,-2,-1
1615918126204812,-2,-2,8,4,0,0,1,-3
1615918126204812,-3,1,-3,-6,0,3,2,3
1615918126205836,-2,-5,-16,-3,0,1,-4,-4
1615918126205836,-1,1,67,6,2,-5,-5,-2
1615918126226756,-2,4,-2,0,-2,-7,1,-1
1615918126226756,-2,-11,-38,-7,4,8,-1,-1
1615918126228750,2,10,27,1,-3,-11,-1,1
1615918126228750,-1,-11,-41,-1,2,-3,-3,-1
1615918126241752,1,8,5,0,1,7,1,-1
1615918126241752,-1,1,23,2,-1,-9,0,-2
1615918126248811,-2,-7,-13,-2,-2,3,-2,0
1615918126248811,2,6,3,-1,1,-2,-1,0
1615918126264308,-2,-8,-55,-6,1,-1,1,0
1615918126264308,-1,-2,26,2,0,4,0,1
1615918126266330,-3,0,16,4,0,-5,1,-3
1615918126266330,-1,4,-38,-10,-6,-14,-11,1
1615918126287684,0,-6,18,4,5,10,3,-2
1615918126287684,0,0,-10,-3,-7,-8,-1,-4
1615918126289272,-1,-2,-1,2,5,4,1,1
1615918126289272,-3,-10,6,-2,1,8,4,0
1615918126302011,-1,4,6,1,2,-1,-2,0
1615918126302011,0,-3,-30,-5,-3,-7,-2,-2
1615918126308320,2,0,-1,-1,2,-1,-2,0
1615918126308320,0,-5,-33,-1,3,4,3,0
1615918126324423,-1,3,16,2,-4,-3,-3,-2
1615918126324423,-3,-8,-11,-5,-3,0,-1,-1
1615918126326674,2,2,7,0,-4,3,2,1
1615918126326674,-2,-2,-21,-4,-2,-4,-5,-1
1615918126347645,0,-1,37,0,-1,-1,2,-1
1615918126347645,-1,4,-5,-1,2,0,0,0
1615918126348644,-2,0,8,-1,-4,-2,-3,-6
1615918126348644,0,4,8,1,-2,9,2,1
1615918126360679,-1,-1,-6,-2,-2,-4,-3,1
1615918126360679,0,-3,2,-1,-2,-4,2,-2
1615918126370312,-1,-1,-12,-3,4,4,0,1
1615918126370312,-2,-5,4,-3,-2,0,1,-1
1615918126385109,-3,-3,-5,-1,-4,-3,-3,0
1615918126385109,0,1,-12,-2,-1,0,0,-1
1615918126386235,-1,1,11,2,0,-1,0,-3
1615918126386235,-1,-2,-31,-1,0,2,-1,-2
1615918126407339,-1,-1,21,-2,-4,-5,0,-1
1615918126407339,1,-4,-11,-2,-3,-3,2,1
1615918126408324,-2,-1,5,-2,-3,-2,-10,0
1615918126408324,3,2,28,5,1,-7,3,0
1615918126420278,-1,-1,-23,-3,-2,-2,0,-2
1615918126420278,-5,-3,7,1,2,11,-2,-4
1615918126429328,0,0,-1,-1,-2,-4,1,1
1615918126429328,-2,0,4,-3,-2,-2,3,-2
1615918126444531,-2,-8,-27,-3,-1,6,-3,-1
1615918126444531,1,7,15,4,1,-1,-2,0
1615918126446529,-2,-1,28,7,-1,0,0,-1
1615918126446529,0,-2,-2,-4,0,-2,3,0
1615918126467125,-1,-2,7,0,-1,-12,-7,-2
1615918126467125,0,4,27,1,3,10,0,-1
1615918126469196,0,6,16,0,-4,-1,-2,-1
1615918126469196,1,4,-25,2,1,-1,3,-2
1615918126481281,-1,-4,-2,-3,1,9,1,-1
1615918126481281,-3,-2,-9,-2,-2,-13,-4,-2
1615918126497050,-2,-4,-7,-1,-4,3,0,1
1615918126497050,-2,0,19,-1,-2,-3,-4,-1
1615918126505155,-1,-7,-40,-4,1,1,1,-1
1615918126505155,-2,2,-20,0,0,0,-1,-1
1615918126506274,2,-3,12,-3,0,1,2,0
1615918126506274,1,-2,10,1,-4,-7,-8,-3
1615918126527615,-2,0,-7,-3,-2,-7,-2,-5
1615918126527615,0,1,11,-3,-2,-3,0,-1
1615918126528615,-1,-11,-44,-4,-4,5,0,-1
1615918126528615,-3,6,22,1,1,-5,-5,0
1615918126541270,-1,1,-3,0,2,0,-2,-1
1615918126541270,0,-5,-7,-2,-2,-4,-1,0
1615918126550295,-1,2,10,-1,-1,-3,5,-2
1615918126550295,0,1,-3,2,-3,7,-1,-3
1615918126564341,-1,0,-20,-2,-1,4,3,0
1615918126564341,-1,-1,-6,-3,-3,-12,-3,-1
1615918126566308,-3,-3,6,1,0,11,-4,0
1615918126566308,0,-4,-9,0,3,1,4,-3
1615918126588818,0,-3,-37,-6,-3,-1,-3,-1
1615918126588818,1,8,89,12,1,7,2,1
1615918126589817,-3,-3,-42,-8,-1,-9,-4,0
1615918126589817,-1,1,23,-1,-3,-3,-7,0
1615918126601292,-2,-5,-13,-5,-7,-7,3,-2
1615918126601292,-2,-6,-32,3,-1,7,0,-1
1615918126609805,-2,-3,7,-2,0,-5,1,-4
1615918126609805,-3,-8,-7,-6,-1,5,3,-1
1615918126624908,1,11,54,8,-1,-10,-3,1
1615918126624908,-3,-7,-34,-8,-2,1,-1,-1
1615918126625905,0,2,16,4,1,2,-2,-1
1615918126625905,-1,2,-12,-5,-3,-1,0,0
1615918126647676,1,4,14,6,-2,3,-2,-1
1615918126647676,-1,0,21,1,-2,-5,-1,-1
1615918126649271,-2,-4,5,-3,-2,1,-2,-3
1615918126649271,1,-4,-1,1,1,0,5,1
1615918126660303,-2,-4,-3,-1,0,0,1,2
1615918126660303,-1,1,-14,-2,-2,-4,-7,-2
1615918126670308,-1,-1,-16,1,1,-3,-2,-2
1615918126670308,-2,-3,-7,-2,-5,-2,-2,0
1615918126684815,0,-1,1,0,3,2,2,-1
1615918126684815,-2,-9,-29,-3,-2,-4,0,-4
1615918126685912,0,-1,-19,-5,0,11,-1,-1
1615918126685912,0,5,25,1,-1,-3,2,0
1615918126707582,-1,-3,-17,-5,-2,-7,0,-1
1615918126707582,-2,4,-2,-1,-2,-2,-4,-2
1615918126708579,-1,-4,1,1,-2,-2,1,1
1615918126708579,1,9,29,2,0,5,-3,-6
1615918126720900,0,-4,-13,-4,0,5,2,-1
1615918126720900,2,0,7,-3,-1,-10,-7,1
1615918126729904,-1,-1,-13,-5,-3,-6,2,-1
1615918126729904,-2,-6,12,4,-3,1,-2,-4
1615918126744939,1,1,3,0,4,3,-2,1
1615918126744939,0,-2,-4,-4,-7,1,6,-1
1615918126745917,-2,-1,17,1,0,-2,-6,-1
1615918126745917,1,1,-25,-3,-1,-8,-1,-1
1615918126775208,0,-1,-3,-1,-2,5,0,0
1615918126775208,-2,-1,1,-3,2,7,0,-2
1615918126776218,0,-1,-10,-2,1,-6,0,-2
1615918126776218,-2,5,54,2,-4,-2,-2,1
1615918126781214,-3,-7,0,0,4,6,3,0
1615918126781214,-1,-1,-12,-3,-2,-8,-5,-2
1615918126790202,-1,2,4,-1,-2,4,3,0
1615918126790202,-3,-6,-21,-7,0,-6,-2,-2
1615918126804243,-2,-5,-45,-4,-1,-2,-2,-1
1615918126804243,-1,1,46,4,-2,4,2,-1
1615918126806234,1,-1,-4,0,-1,-8,-1,0
1615918126806234,-1,-5,-7,-3,2,3,1,-1
1615918126827178,-1,-1,-2,-4,-8,-2,-1,-1
1615918126827178,1,5,0,1,3,8,3,3
1615918126829173,-1,-4,11,1,-8,-9,-3,-3
1615918126829173,3,4,-46,-6,-1,6,2,1
1615918126849742,-2,3,31,1,-3,-2,-3,-2
1615918126849742,-1,0,6,-1,0,8,4,0
1615918126851747,2,1,-5,-1,1,-7,-7,1
1615918126851747,-3,-10,-49,-8,-4,-8,1,0
1615918126864804,-1,0,54,3,1,3,-3,-2
1615918126864804,-1,-3,-22,6,1,-7,3,-2
1615918126865767,-3,-2,-6,-5,-1,5,1,-1
1615918126865767,-1,-3,7,4,-1,6,-1,-3
1615918126887558,0,1,-6,0,1,-2,1,1
1615918126887558,-1,-5,-7,-5,0,-6,-1,-2
1615918126888559,0,0,16,2,3,2,-1,2
1615918126888559,-2,-2,12,5,-1,1,-2,0
1615918126909322,-3,-1,-20,-3,-3,-7,0,-1
1615918126909322,-2,-3,-13,-2,1,0,-3,-1
1615918126911317,-1,0,-19,-6,-2,3,-1,-1
1615918126911317,-1,4,22,1,-1,5,4,-2
1615918126925093,-1,-5,-6,0,-2,-5,-4,-2
1615918126925093,-1,1,-11,-6,0,4,-1,-1
1615918126926092,0,0,23,8,1,-4,0,0
1615918126926092,-2,0,-21,-8,-5,-6,0,-1
1615918126947489,-1,0,21,2,-2,8,2,-2
1615918126947489,1,-5,2,2,-1,-6,-2,-1
1615918126949282,-1,-2,-31,-1,1,10,2,-3
1615918126949282,2,3,5,0,-1,-3,-3,-1
1615918126969566,-3,-2,17,1,-1,-14,-5,1
1615918126969566,0,-2,29,-1,-4,3,-2,-3
1615918126971563,-4,-3,-20,-7,-2,-5,5,-1
1615918126971563,1,2,17,5,1,8,-4,1
1615918126984477,-1,-2,-10,-6,-3,-10,-5,-4
1615918126984477,-2,4,23,7,-1,1,0,-2
1615918126990273,-1,4,16,-2,-2,-3,-1,-1
1615918126990273,0,4,-7,-4,0,-2,1,0
1615918127006826,1,-2,-40,-3,-4,2,-3,-1
1615918127006826,-1,0,40,2,0,-2,0,0
1615918127008794,0,1,11,1,-1,-4,0,-1
1615918127008794,-4,-6,-7,0,0,0,-2,-4
1615918127030059,3,7,-5,-1,1,-1,0,-1
1615918127030059,1,-6,-59,-8,-1,0,0,-2
1615918127031003,1,0,-13,1,-2,1,0,1
1615918127031003,-2,-5,-23,-5,0,2,2,0
1615918127044398,-4,-5,11,-3,-1,-2,-1,-3
1615918127044398,-1,1,-30,-9,-1,-4,-3,0
1615918127051279,-3,-6,4,3,2,1,3,-3
1615918127051279,2,6,11,-1,-1,-2,-2,2
1615918127067295,0,-3,-5,1,-2,0,1,0
1615918127067295,-1,1,-5,3,1,3,-2,-1
1615918127069287,-2,-3,-13,-4,-1,-1,-3,-1
1615918127069287,-1,2,24,1,-4,4,-1,-1
1615918127097357,0,2,-3,-3,1,-6,-1,1
1615918127097357,-4,-6,6,-1,-1,0,-4,-5
1615918127098358,-2,4,39,4,-4,-5,-4,-2
1615918127098358,-1,-8,-35,-5,2,7,2,1
1615918127104420,0,-1,-11,-1,-1,-1,2,-1
1615918127104420,0,-2,-16,0,-5,-2,3,3
1615918127111247,-1,1,21,-2,-1,5,0,0
1615918127111247,-2,-5,-15,1,0,-11,-5,-4
1615918127127481,0,-1,2,1,-1,-2,0,-2
1615918127127481,-2,0,1,-4,0,8,1,1
1615918127128475,-1,-1,-7,-1,0,-3,-2,-2
1615918127128475,-2,-1,-4,-1,-2,-4,-1,0
1615918127149629,-1,5,18,-3,1,1,0,-3
1615918127149629,-1,-2,7,4,-1,4,0,-1
1615918127151280,-1,-1,-15,-6,-5,-7,-3,-2
1615918127151280,-3,-9,1,3,-4,-2,0,0
1615918127164285,0,-4,-8,-2,1,2,1,2
1615918127164285,-1,2,-11,-2,-2,-1,-2,-2
1615918127171302,-3,-1,-3,-3,-1,1,-3,-1
1615918127171302,2,4,74,5,-1,-1,-3,-1
1615918127187220,0,-2,-14,-6,1,5,3,0
1615918127187220,0,-2,13,7,-2,-11,-11,-2
1615918127189216,-1,3,0,-1,1,0,4,1
1615918127189216,-3,-5,-3,-4,-5,-16,-3,-3
1615918127210490,-2,1,-11,2,1,5,0,-1
1615918127210490,1,4,4,0,0,0,1,1
1615918127211486,-2,-5,-14,-1,2,8,-1,-1
1615918127211486,-3,-1,2,-3,2,-3,2,-2
1615918127224500,0,0,-6,-1,-8,-8,-2,1
1615918127224500,-2,2,20,-2,0,-1,0,-3
1615918127231304,0,-1,6,2,-2,-6,3,1
1615918127231304,0,-2,-32,0,-1,6,-1,0
1615918127247514,-3,2,6,1,3,6,-2,0
1615918127247514,0,-4,-26,-6,0,-1,6,-1
1615918127248501,-2,-2,9,-1,-3,-11,-8,-3
1615918127248501,0,1,-18,2,2,11,3,1
1615918127269704,-2,-9,7,-3,-1,-10,-6,-4
1615918127269704,1,10,16,1,-3,-8,0,3
1615918127271034,-2,-5,-8,-3,-6,6,-2,-4
1615918127271034,0,1,-10,-3,0,-9,-1,1
1615918127284233,-2,-3,2,1,-2,7,-3,-2
1615918127284233,0,4,6,-4,-1,-4,3,-1
1615918127291272,-1,-4,-19,-3,-4,-4,-4,-2
1615918127291272,-1,2,20,0,2,3,-3,-1
1615918127307311,-1,4,42,7,1,-1,-1,-1
1615918127307311,-2,-12,-33,-4,-9,-11,-3,-2
1615918127309280,3,5,-19,-4,2,8,4,1
1615918127309280,-3,-8,5,-1,-1,-7,-9,-4
1615918127329251,-1,3,16,4,1,-3,3,1
1615918127329251,-1,-2,4,-2,2,6,1,0
1615918127331220,2,1,-4,1,0,2,0,0
1615918127331220,-2,-3,9,-2,-5,-11,-3,-1
1615918127343552,-1,-4,-22,0,-2,1,0,-1
1615918127343552,-2,-2,-14,-6,0,-1,-3,-3
1615918127352067,-1,7,34,4,0,1,1,1
1615918127352067,0,1,-14,-2,5,9,3,-1
1615918127374333,-3,-6,-9,-2,-2,-1,-2,-1
1615918127374333,-1,-1,-8,-2,-6,-12,-1,-2
1615918127376328,-2,-6,-15,-1,4,3,-1,-1
1615918127376328,1,4,-15,1,1,5,2,1
1615918127389542,0,-1,0,-7,-4,-17,-10,-3
1615918127389542,-3,-5,-25,6,5,10,2,0
1615918127391604,-2,-3,9,0,3,-2,-2,0
1615918127391604,0,3,0,-6,-4,-2,1,-3
1615918127403483,0,-3,-3,-2,0,4,2,-1
1615918127403483,0,6,37,4,0,-4,-4,0
1615918127418664,-1,-1,12,2,-3,-6,1,0
1615918127418664,-2,-4,-17,-2,-2,-3,-3,-4
1615918127426773,-3,-2,-6,-3,-5,-2,0,-3
1615918127426773,-2,-7,-24,-2,2,4,-3,-1
1615918127428764,0,0,9,1,-1,-5,1,-1
1615918127428764,4,6,20,2,2,8,3,-1
1615918127449563,0,1,-9,-4,-3,-1,-2,1
1615918127449563,-1,-5,-25,-5,-2,-13,-3,0
1615918127450988,-5,0,7,-3,-4,4,-1,-2
1615918127450988,-1,-3,17,3,-4,-7,-2,-1
1615918127463524,-2,0,-6,-5,1,10,0,-1
1615918127463524,3,5,19,5,1,-4,2,0
1615918127472021,-2,-6,-11,-4,-1,-8,-2,0
1615918127472021,-4,-1,-11,-4,-2,-3,-3,-6
1615918127487684,-1,-3,13,0,-2,-2,2,-2
1615918127487684,-4,-1,14,0,-2,5,-2,0
1615918127489278,3,3,1,2,3,1,-2,1
1615918127489278,-2,-5,-44,-5,-2,0,0,-2
1615918127509343,-3,0,3,2,1,1,3,-2
1615918127509343,1,0,-4,-1,0,-4,1,-1
1615918127511313,-2,-2,-8,-2,-6,-7,-7,-1
1615918127511313,-3,-1,30,-2,4,4,2,1
1615918127523375,3,1,-12,-1,-4,0,-3,-1
1615918127523375,0,-6,11,-1,1,-2,0,0
1615918127532868,-1,1,-5,0,-2,-2,2,-2
1615918127532868,-3,-6,-7,2,0,-2,-2,-1
1615918127547607,2,-2,-4,2,3,-2,0,2
1615918127547607,0,-1,-5,-9,2,9,-2,-6
1615918127548606,-1,-1,53,6,-5,-3,-1,-2
1615918127548606,0,8,0,2,-2,-8,-1,1
1615918127570154,-1,-2,-3,-2,2,5,2,-1
1615918127570154,-3,-3,-20,-2,-2,0,-1,-1
1615918127571012,-1,-1,-15,-6,1,1,-3,-3
1615918127571012,2,3,38,5,-4,0,0,0
1615918127583440,-2,1,-1,0,-1,-5,0,-1
1615918127583440,-4,-5,-7,-4,-4,-3,-8,-4
1615918127592193,0,-2,-5,-3,-2,3,0,0
1615918127592193,-1,-1,-7,3,0,-10,-2,1
1615918127606558,-3,4,-8,-2,-2,2,0,-1
1615918127606558,1,-1,-21,-7,-1,-3,3,-1
1615918127613543,-1,0,33,5,2,3,-2,-1
1615918127613543,-1,-4,-19,-4,1,1,-1,-1
1615918127629627,-1,-2,-30,-4,3,7,-1,-4
1615918127629627,-1,-1,16,-3,-3,-9,1,0
1615918127631798,-1,1,-22,0,-1,2,0,-3
1615918127631798,1,-2,-9,-4,1,-2,-1,2
1615918127643180,-3,-3,22,1,-3,4,0,-1
1615918127643180,0,9,22,3,0,0,-1,2
1615918127652861,-3,-4,-24,-3,-2,-7,-2,-4
1615918127652861,-3,-2,-4,-1,-2,7,1,-3
1615918127667418,0,-3,5,-2,-3,-5,0,-1
1615918127667418,-1,-4,0,3,-3,3,-2,1
1615918127673375,1,6,-2,-4,3,2,-1,2
1615918127673375,4,6,12,5,2,3,0,1
1615918127697258,-1,4,52,4,1,3,-1,-2
1615918127697258,-2,-7,-30,-3,0,-11,1,0
1615918127698401,1,-4,3,0,0,-4,-2,-4
1615918127698401,-1,-3,-36,-5,-4,1,-1,-1
1615918127703751,3,1,-5,3,3,-4,2,1
1615918127703751,-2,-2,1,-3,0,12,0,-3
1615918127712729,-1,1,4,2,2,-5,2,1
1615918127712729,-2,-3,-30,-6,-2,-1,-7,-3
1615918127726944,-1,2,8,0,-2,-13,-3,-1
1615918127726944,-2,-2,-2,-2,-2,3,-3,-2
1615918127728960,1,2,4,-1,-1,1,3,-2
1615918127728960,-3,-2,-1,-3,0,4,-1,-1
1615918127749995,1,0,20,0,-2,-4,-4,1
1615918127749995,1,-1,2,0,1,-1,3,-2
1615918127751002,-2,-6,-8,-3,-3,-3,-6,-1
1615918127751002,2,4,18,-1,0,5,1,0
1615918127772255,1,-5,-6,3,-3,-15,-1,2
1615918127772255,0,-1,-8,-3,0,0,0,-3
1615918127774218,-3,-1,12,-2,-2,6,1,2
1615918127774218,-1,-4,-11,2,-4,-1,0,0
1615918127787185,-2,-2,-18,-6,-4,-15,-10,-4
1615918127787185,-1,9,53,9,-1,6,-1,-1
1615918127789181,-1,0,-30,-3,-1,4,2,-1
1615918127789181,-3,1,12,-1,-1,-3,0,-3
1615918127809844,0,3,-7,1,0,10,5,1
1615918127809844,-2,-5,-23,-4,-1,-4,-2,-1
1615918127810817,1,-3,-26,-4,-2,-1,-2,-3
1615918127810817,-3,-5,6,2,-2,-4,0,0
1615918127831817,-1,3,-21,-1,1,-3,0,-4
1615918127831817,1,-1,9,-1,-2,7,-1,-1
1615918127839441,1,-2,-12,-3,-2,0,6,-1
1615918127839441,-1,-4,-14,-6,-1,3,-7,-4
1615918127847390,-1,-4,-32,-3,1,-11,0,-1
1615918127847390,0,17,57,9,-2,4,-8,-1
1615918127848362,-2,-3,-22,-7,-2,-9,0,-2
1615918127848362,0,-3,31,7,0,1,0,2
1615918127869703,-4,-6,-9,1,0,7,0,-2
1615918127869703,-1,2,6,0,-1,-6,4,0
1615918127871696,-3,0,0,1,0,5,-3,0
1615918127871696,-2,-5,-13,-5,-4,-7,0,-1
1615918127892640,-1,-3,21,-5,-1,2,1,-2
1615918127892640,-2,1,28,6,-3,-2,3,0
1615918127893636,1,-5,-10,1,-1,-1,-4,2
1615918127893636,-3,0,5,1,1,-1,2,-1
1615918127906396,-2,-10,-7,-2,3,1,0,-2
1615918127906396,2,7,-33,-3,-3,0,6,3
1615918127913298,-1,1,26,7,2,0,-5,-2
1615918127913298,-2,-5,-13,-1,1,-4,1,0
1615918127930350,1,4,4,1,-8,-6,-5,-1
1615918127930350,-2,-10,-31,-8,0,-4,-2,-2
1615918127931326,-4,-2,-9,-2,-4,1,5,0
1615918127931326,0,0,-13,-4,1,2,-1,0
1615918127952590,-1,9,17,0,-1,9,1,2
1615918127952590,-1,-7,2,-4,-2,-6,1,-2
1615918127953595,-2,3,13,3,1,-4,-3,-1
1615918127953595,-1,4,39,3,-2,4,-1,-3
1615918127966579,-1,-5,-35,-5,-5,-4,0,0
1615918127966579,-3,-6,-11,-6,-1,-6,-4,-6
1615918127973540,2,7,31,4,0,-5,4,-1
1615918127973540,-1,-4,-38,-4,-2,6,-7,-2
1615918127989627,-2,-3,-3,0,5,8,3,0
1615918127989627,-3,-3,-19,-1,0,-8,-3,0
1615918127991624,-1,-8,-28,-5,-1,0,0,0
1615918127991624,0,-4,-21,-3,-2,-8,4,-1
1615918128012334,-2,2,11,0,2,7,-2,-1
1615918128012334,0,-2,-18,1,-1,6,0,1
1615918128014303,-2,-2,-12,-2,-1,-15,-4,-4
1615918128014303,-1,1,19,4,1,-1,1,-2
1615918128026315,4,-1,5,-1,0,6,-3,-2
1615918128026315,3,8,15,4,5,1,2,-1
1615918128033819,-2,-4,3,-6,-1,0,-2,-2
1615918128033819,0,5,1,7,-3,-1,0,1
1615918128050169,-1,-6,-26,-5,1,0,4,0
1615918128050169,-1,-2,16,3,0,-7,-5,-2
1615918128051286,0,3,6,1,1,7,-3,0
1615918128051286,-1,-2,-19,-8,0,-8,-1,-1
1615918128072669,-1,-2,12,2,-3,0,2,-2
1615918128072669,-2,-3,23,3,-2,2,-1,-2
1615918128073333,2,0,-18,-1,2,4,1,0
1615918128073333,1,-4,0,-5,-1,2,0,0
1615918128087033,-3,-2,-4,1,-2,-1,2,0
1615918128087033,1,4,15,0,-4,-2,-1,1
1615918128093757,1,0,1,-1,-1,-13,-3,-2
1615918128093757,1,0,33,4,-1,4,-1,0
1615918128109310,2,8,39,-2,-2,-1,-2,0
1615918128109310,-4,-6,-23,-2,-1,10,4,0
1615918128111305,0,-1,-8,-1,-2,-7,-3,0
1615918128111305,-2,0,-2,-4,-1,-5,-2,-3
1615918128132717,-2,-7,-27,-3,-1,0,-2,-1
1615918128132717,0,2,46,1,-1,-6,-2,-2
1615918128133718,-3,-3,-16,-6,1,9,4,1
1615918128133718,-2,-6,-2,1,-1,-7,0,0
1615918128146391,-2,-3,-7,-2,-2,2,-3,-2
1615918128146391,-3,-5,-44,-6,-2,2,-3,-3
1615918128161294,-1,-1,29,3,-3,-14,-2,-1
1615918128161294,1,0,-4,-2,0,4,-3,0
1615918128170170,0,1,3,-3,-3,1,0,-1
1615918128170170,1,-3,-12,1,2,-7,5,1
1615918128171035,-1,-1,-13,-2,-1,2,-9,-2
1615918128171035,-1,3,-7,-2,-2,2,0,0
1615918128192487,-3,-1,13,1,-2,-11,1,-1
1615918128192487,-2,-2,-9,-5,-1,3,-3,-1
1615918128193486,0,0,-5,-3,1,8,4,1
1615918128193486,-2,2,35,4,-2,-5,-2,-5
1615918128206817,1,9,-18,-5,0,-6,-6,0
1615918128206817,1,-4,8,9,1,1,1,1
1615918128213809,-2,-4,-22,-3,-7,5,1,-3
1615918128213809,-2,-2,-18,-5,0,-11,-2,2
1615918128229912,-3,0,16,2,2,10,-1,-2
1615918128229912,0,-2,-20,-3,1,-2,-1,-1
1615918128231022,-2,6,10,3,-5,-8,-8,-2
1615918128231022,1,-5,-3,-3,0,9,3,0
1615918128252715,0,-3,-34,-1,2,-10,-3,-1
1615918128252715,0,-4,-5,-4,-4,-1,-1,-1
1615918128253715,-1,1,20,-1,3,-5,-1,1
1615918128253715,-1,13,34,2,-3,2,0,1
1615918128274507,1,-1,-4,-3,3,2,-1,1
1615918128274507,-4,-3,23,4,-1,1,1,-1
1615918128275504,-1,1,12,2,-5,-1,1,-2
1615918128275504,-1,-6,-22,-5,-1,-2,-2,-1
1615918128289038,-1,4,38,6,-3,-2,-3,-1
1615918128289038,1,4,-22,-4,0,5,-1,1
1615918128290039,-2,-10,-16,-3,-3,-14,2,-2
1615918128290039,-3,-3,-5,1,-4,-11,-9,-3
1615918128311506,-4,-5,-11,-2,-2,2,-1,-4
1615918128311506,-3,-3,-41,-9,-2,-1,-3,-2
1615918128312504,1,7,23,3,2,4,1,0
1615918128312504,0,2,-17,-4,2,3,3,0
1615918128335202,0,-2,-13,2,-2,-5,-4,0
1615918128335202,-2,-2,-18,-3,2,-1,0,-1
1615918128335266,-2,-5,-15,-6,0,0,0,-2
1615918128335266,-1,-4,-4,-2,-3,-2,0,0
1615918128349522,0,4,9,3,3,7,0,-2
1615918128349522,-1,3,8,-1,0,1,2,1
1615918128350363,-4,-2,2,5,-1,9,-3,1
1615918128350363,-2,-8,-24,-6,1,-6,0,-2
1615918128372017,0,3,29,-1,-4,4,2,0
1615918128372017,-1,0,2,-2,0,-4,-4,-1
1615918128372017,-1,-3,44,1,-1,3,-3,-3
1615918128372017,3,12,18,4,0,-8,1,-1
1615918128395170,-2,-1,19,3,-4,7,2,-1
1615918128395170,0,-4,1,-4,-2,-12,-3,0
1615918128395263,1,-8,-50,-4,-1,10,-2,-3
1615918128395263,-4,-2,51,7,2,-9,-2,-3
1615918128409325,-2,-1,-25,-6,-1,-5,-1,0
1615918128409325,2,1,6,1,-1,3,-1,0
1615918128409325,-2,-1,-2,-1,1,2,1,1
1615918128409325,-2,-6,-37,-4,-4,-6,-10,-4
1615918128431916,3,3,16,2,-2,-2,-1,-1
1615918128431916,-3,-8,-14,-3,-2,-1,-2,-3
1615918128431916,-1,-3,-43,-5,0,1,3,0
1615918128431916,1,4,5,-2,2,8,3,0
1615918128454418,-3,-4,19,2,-4,2,-3,-2
1615918128454418,-1,-1,7,-1,-8,-10,-2,-2
1615918128455235,-1,-2,-11,1,-2,-5,-3,0
1615918128455235,-1,-3,-5,-3,1,8,0,1
1615918128469207,-3,-4,-16,-1,-3,-14,-2,-3
1615918128469207,-2,-2,0,-1,1,8,3,1
1615918128470203,1,4,8,2,0,-7,-1,-2
1615918128470203,-1,-2,21,3,-2,4,-1,0
1615918128491435,-1,-4,-18,-6,3,3,5,-1
1615918128491435,1,-3,-17,-2,-3,4,-4,2
1615918128492451,0,-4,1,-5,-1,-3,-4,-2
1615918128492451,0,6,28,2,-2,0,2,-1
1615918128514301,-2,-3,3,5,1,7,-2,0
1615918128514301,-1,1,10,-4,1,-5,-1,0
1615918128515271,-2,-2,-7,-4,-3,-2,0,-3
1615918128515271,-3,-1,12,0,-2,4,0,-2
1615918128530248,-2,0,-10,-6,-4,-12,-1,-1
1615918128530248,0,1,-5,3,4,5,0,0
1615918128531852,-1,7,18,2,-2,-5,0,1
1615918128531852,-1,-3,-19,-2,3,4,0,-3
1615918128551965,-1,-4,-2,-1,-5,-8,-2,-1
1615918128551965,-2,-2,-4,1,-1,0,-1,-4
1615918128552388,-3,-3,5,-3,0,1,0,2
1615918128552388,-1,-3,-10,-5,-2,5,1,-1
1615918128582693,3,4,44,9,5,4,-4,0
1615918128582693,-2,-3,-23,1,-2,-5,-1,-2
1615918128583566,1,-4,1,1,-2,-6,0,-2
1615918128583566,1,0,-3,-4,-4,2,1,-2
1615918128588831,-2,-6,-3,-6,1,-4,0,-4
1615918128588831,-1,-1,-12,2,-1,6,-2,1
1615918128589829,-1,-1,6,-2,2,-2,1,-1
1615918128589829,-1,-3,-30,-1,-3,0,1,1
1615918128611833,2,4,25,2,-3,-4,-2,0
1615918128611833,-2,-1,-8,-2,1,1,-1,-2
1615918128611833,-3,-6,-23,-3,0,6,-1,-2
1615918128611833,0,3,-24,1,0,-12,3,0
1615918128634461,2,4,5,-3,-3,6,-4,0
1615918128634461,-2,-6,-17,-2,-2,-14,-6,-1
1615918128635298,1,6,26,1,1,9,2,-1
1615918128635298,-5,-6,-7,-1,-2,-10,-2,1
1615918128649493,-2,-5,-45,-6,0,4,0,0
1615918128649493,0,2,19,0,0,-1,2,-1
1615918128650317,0,0,27,3,-1,3,-2,-2
1615918128650317,0,5,-18,-4,0,-4,-1,-2
1615918128671993,-1,2,16,1,-2,0,-6,-1
1615918128671993,-3,5,34,2,-5,2,-3,-3
1615918128672331,0,-4,-24,1,3,5,1,1
1615918128672331,0,0,9,-1,-3,-12,2,0
1615918128694354,-4,-11,-49,-16,-4,1,-1,-3
1615918128694354,4,17,91,22,-1,-2,-1,-1
1615918128695321,-2,0,-6,0,-2,5,1,0
1615918128695321,-3,-6,4,0,2,1,-4,-2
1615918128708449,-1,-2,-17,-3,0,-9,1,-1
1615918128708449,2,-4,-24,-5,-2,3,-1,1
1615918128716432,-1,-5,-15,-3,-3,-8,-4,-2
1615918128716432,2,16,76,8,1,1,0,1
1615918128731971,0,-1,-7,3,-2,-2,1,0
1615918128731971,-6,-12,-36,-11,3,-6,-3,-5
1615918128732826,0,4,17,4,-1,4,-1,0
1615918128732826,-5,-13,-56,-6,0,4,-2,-3
1615918128754272,3,4,5,5,2,-2,3,3
1615918128754272,-1,3,10,0,-1,-4,-1,0
1615918128761474,-3,-7,-33,-6,-1,2,0,-2
1615918128761474,-1,-8,-11,1,-2,12,-2,-3
1615918128769509,0,8,5,0,-1,-16,0,-2
1615918128769509,-1,-9,-38,-6,0,7,-1,-2
1615918128769509,1,12,44,0,0,1,-1,0
1615918128769509,2,2,4,3,0,0,-2,1
1615918128792057,-6,-7,-14,-1,-3,-10,-1,-5
1615918128792057,1,-5,-25,-6,0,2,3,0
1615918128792057,0,5,19,0,-1,-5,-3,-2
1615918128792057,-1,-4,-7,-3,-1,0,1,-3
1615918128814339,-1,0,-10,1,1,2,1,0
1615918128814339,-3,-1,10,-1,3,1,1,-2
1615918128814339,-3,-12,-62,-3,-3,-6,-1,-2
1615918128814339,0,2,31,0,0,1,2,1
1615918128829542,-1,-7,-14,0,1,4,-5,2
1615918128829542,3,12,40,0,0,-6,-2,0
1615918128829542,1,-3,-10,-2,-1,6,-2,-3
1615918128829542,-2,-3,4,-2,-5,-13,-4,-1
1615918128851941,-2,-5,-17,-5,0,14,6,1
1615918128851941,-3,-2,-3,7,-1,2,0,1
1615918128851941,0,-1,9,-2,-6,-14,-1,0
1615918128851941,1,-3,9,2,0,4,-4,-2
1615918128874234,1,13,15,-4,-3,3,3,0
1615918128874234,-2,-5,-3,-1,-2,-3,-3,-2
1615918128875210,0,5,1,-1,-1,1,0,-1
1615918128875210,0,0,15,-1,0,-7,-4,0
1615918128888774,-2,-5,-23,2,-2,-2,-1,-3
1615918128888774,1,5,39,-3,-1,5,2,1
1615918128896222,-1,-3,12,-1,2,-1,-1,0
1615918128896222,-3,-5,-30,-6,-4,-4,-1,-2
1615918128911307,0,3,2,0,4,3,-2,-2
1615918128911307,-2,-7,-17,-8,-5,-6,-1,-2
1615918128912282,1,5,-19,0,-4,-7,-1,-1
1615918128912282,-2,0,35,0,1,6,-4,-2
1615918128934444,0,-8,-22,-8,-6,-9,-2,-1
1615918128934444,-1,-3,0,7,0,3,-3,-2
1615918128935236,1,10,20,-3,1,2,4,2
1615918128935236,-1,-1,-23,0,1,-2,-1,-1
1615918128949261,-1,-4,14,-4,-4,0,-4,0
1615918128949261,-3,-5,-17,-6,-5,-5,0,-1
1615918128950259,-2,-3,9,4,-1,-2,-1,0
1615918128950259,2,1,-5,-3,-3,11,2,0
1615918128971248,-1,-5,-9,1,1,-15,-1,-1
1615918128971248,1,11,37,4,0,5,-4,0
1615918128972243,-2,-7,-5,-3,-4,-2,0,-3
1615918128972243,-3,-5,-6,-4,-1,-4,0,-2
1615918128994096,0,8,20,5,0,-1,-3,-1
1615918128994096,-1,-2,-16,-9,-3,-1,3,-1
1615918128995092,-2,-1,13,7,0,-5,-4,-1
1615918128995092,-1,0,-25,-3,0,-5,-6,-1
1615918129009380,-1,-2,9,0,0,1,2,0
1615918129009380,-2,-2,-16,-4,-1,-1,-2,-3
1615918129010375,0,2,-5,0,4,4,3,-1
1615918129010375,-1,0,-14,-4,-5,-4,-1,0
1615918129031318,-2,0,14,2,-2,1,-2,-1
1615918129031318,1,-2,-19,-4,0,-2,1,-1
1615918129039296,-4,-4,10,-1,-1,6,-3,1
1615918129039296,-3,-6,-6,-1,2,-10,0,0
1615918129053926,0,9,7,-1,-5,2,-1,1
1615918129053926,-2,-3,-23,-1,-2,-8,-2,-4
1615918129054926,1,3,1,-8,-6,-9,-7,-2
1615918129054926,-1,3,24,6,0,7,0,0
1615918129069501,-4,-8,-26,-3,4,3,1,-5
1615918129069501,-1,-2,-16,-4,1,-4,0,1
1615918129070349,2,4,-3,3,2,3,1,1
1615918129070349,-2,-4,-29,-5,-3,-3,1,-3
1615918129091963,-2,-5,-3,-2,0,-5,-4,-1
1615918129091963,1,2,18,8,-2,0,-1,2
1615918129091963,-1,-3,-21,-4,2,3,0,-1
1615918129091963,-1,2,40,1,-1,-7,-1,-2
1615918129114321,0,-3,5,-1,1,6,2,0
1615918129114321,0,2,21,0,-2,1,0,0
1615918129115305,0,0,0,-3,-2,9,-1,-2
1615918129115305,-1,-2,-26,2,4,-26,-7,0
1615918129128331,0,5,52,5,-8,3,-2,0
1615918129128331,-3,-8,-30,-5,0,3,0,-2
1615918129137057,-3,-1,-12,-8,-2,-3,3,2
1615918129137057,2,-1,-25,2,1,4,3,-2
1615918129152058,3,0,-19,-6,1,-6,-2,0
1615918129152058,-1,0,3,1,-2,-7,1,-2
1615918129152058,1,4,18,3,-2,4,-2,-1
1615918129152058,-1,-4,-12,-4,2,4,-1,-1
1615918129174412,-3,-8,-7,-3,-1,-5,0,0
1615918129174412,-2,1,-27,-2,2,7,-1,-1
1615918129174412,0,3,73,6,-1,-4,-5,2
1615918129174412,0,2,0,3,-2,-2,3,0
1615918129188343,-1,-4,-20,-2,0,13,0,-3
1615918129188343,0,0,-2,-3,-2,-12,0,0
1615918129196423,-3,-8,-11,-4,0,-1,-2,-3
1615918129196423,-1,0,-15,0,-3,-3,0,0
1615918129211349,0,7,43,6,-1,4,1,3
1615918129211349,-1,-6,-12,-4,2,4,-4,-2
1615918129212323,0,5,10,3,0,-9,1,1
1615918129212323,-3,-3,-3,-1,0,17,5,-1
1615918129234521,-1,-3,-24,-6,-2,-12,-7,-2
1615918129234521,0,1,33,3,-1,-1,-3,-1
1615918129234521,-1,-3,1,-1,-2,-4,0,-1
1615918129234521,-1,-2,22,3,2,12,1,2
1615918129248850,-1,-3,-32,0,2,-3,2,-2
1615918129248850,1,2,18,0,0,-3,-1,1
1615918129256364,-4,-6,-33,-2,-3,2,0,0
1615918129256364,0,0,16,-2,-1,6,-3,-2
1615918129272419,0,1,9,-3,0,-15,0,-3
1615918129272419,-1,3,-7,2,-4,-2,-4,0
1615918129272419,-2,-10,-43,-7,1,2,3,-2
1615918129272419,0,2,24,3,-2,2,-2,-2
1615918129293743,-3,-4,-11,-5,1,-1,-2,-3
1615918129293743,-1,0,-6,7,1,-6,-4,3
1615918129294741,-3,-8,-6,-3,-4,-4,-2,-5
1615918129294741,0,4,-1,-4,1,6,0,1
1615918129316831,0,-1,7,3,-1,-3,-1,0
1615918129316831,1,-1,-4,0,0,-5,0,-1
1615918129317804,-1,-2,-7,0,2,3,-1,0
1615918129317804,-2,-3,-15,0,-3,0,-2,-3
1615918129332069,2,6,-3,-3,0,-7,0,1
1615918129332069,-3,-3,6,-6,-4,-1,-1,-2
1615918129332069,0,1,19,5,1,-3,-1,0
1615918129332069,-1,-8,-36,-7,1,0,1,-2
