timestamp,emg1,emg2,emg3,emg4,emg5,emg6,emg7,emg8
1615918496238358,0,2,3,-3,2,3,0,0
1615918496238358,-1,-1,0,9,0,-3,2,0
1615918496247335,-2,-3,-16,-30,-3,-3,1,-2
1615918496247335,2,2,12,-7,-4,0,-5,0
1615918496262294,-1,-1,-4,16,0,1,1,-1
1615918496262294,-3,1,12,14,-2,-10,-7,-5
1615918496264289,-2,-3,-2,-5,-4,0,1,0
1615918496264289,-2,-3,-24,-10,-3,-3,-3,1
1615918496285232,0,5,31,10,5,2,5,1
1615918496285232,-1,-1,-18,2,0,4,-7,-3
1615918496286230,1,-1,-8,-22,-1,-7,-11,-3
1615918496286230,0,1,16,12,3,4,4,1
1615918496307198,-1,-2,1,-5,1,-2,-1,-2
1615918496307198,-4,-5,-21,-1,0,5,5,0
1615918496309195,-1,4,10,2,0,3,4,3
1615918496309195,0,-2,-3,2,1,1,0,-2
1615918496322161,-1,-4,-9,-18,-3,-1,-5,-2
1615918496322161,2,6,35,7,1,0,2,-1
1615918496324153,0,-1,-24,10,-1,-1,0,2
1615918496324153,-2,1,21,14,2,-2,-1,-2
1615918496345074,1,2,-20,-7,-2,3,4,1
1615918496345074,0,-5,-9,12,-3,0,-18,-3
1615918496346071,-4,-2,1,-1,3,2,1,-3
1615918496346071,3,2,-8,-12,1,1,1,2
1615918496367016,-2,0,2,-3,-3,-1,1,1
1615918496367016,-1,-4,-1,-3,1,-6,9,-1
1615918496369009,1,3,28,9,0,-1,-8,0
1615918496369009,0,-1,-5,8,1,1,-4,-1
1615918496381999,1,-2,-3,-10,0,2,-3,-3
1615918496381999,0,0,-2,1,-3,-5,5,2
1615918496383969,-2,-3,-7,-5,-4,-3,-2,-1
1615918496383969,-1,0,-12,-20,-2,1,13,-1
1615918496404912,-1,-5,1,6,-1,-4,-18,-3
1615918496404912,-1,4,22,16,-2,8,1,-2
1615918496405935,-2,-4,-18,-13,-3,-10,3,-1
1615918496405935,-1,0,14,-9,2,-2,-4,0
1615918496426878,0,0,5,6,-2,-4,1,-2
1615918496426878,1,0,-13,-13,-2,3,-1,3
1615918496428849,-1,1,29,12,3,1,-2,-3
1615918496428849,-3,-7,-29,-27,-6,-4,-4,-4
1615918496440816,2,3,32,30,4,-3,4,4
1615918496440816,-1,1,4,-4,0,2,6,-1
1615918496448795,-1,0,-9,13,-3,0,1,-1
1615918496448795,1,-1,-10,12,-2,-4,-1,0
1615918496463755,-2,-3,-16,-11,-1,2,-17,-6
1615918496463755,0,-3,-15,-20,0,-1,5,0
1615918496464753,4,-2,-19,-7,-2,-1,4,4
1615918496464753,-2,0,16,11,1,2,-3,-3
1615918496487078,-1,1,4,9,-4,0,4,-3
1615918496487078,-1,-4,-21,-20,1,1,-3,-2
1615918496487078,-3,-3,-4,8,0,0,-2,-3
1615918496487078,-2,-1,5,-11,-3,-1,-1,0
1615918496501044,-3,0,11,22,0,-4,3,-1
1615918496501044,-2,-1,-13,5,-4,1,-3,0
1615918496509020,2,2,-4,-26,-2,1,1,-1
1615918496509020,-3,-1,10,11,-1,-3,1,-2
1615918496523979,0,-3,-22,-25,0,-1,-14,-2
1615918496523979,-2,-2,-1,17,-2,-1,9,2
1615918496524953,2,1,25,8,0,-3,-10,0
1615918496524953,2,1,-10,2,0,-1,0,2
1615918496546741,-3,-5,-21,-26,-3,-2,5,0
1615918496546741,-2,-1,5,1,-1,-1,-6,-4
1615918496547737,-1,4,34,9,3,3,0,-1
1615918496547737,-1,-2,4,-29,-3,-7,4,0
1615918496560702,-2,-3,-4,35,-1,-1,-1,-1
1615918496560702,2,7,43,12,0,-5,0,0
1615918496569677,0,-3,-22,-7,1,12,6,0
1615918496569677,-3,-3,-14,-19,-5,-6,-6,-4
1615918496584636,0,-1,-4,-10,1,-5,-12,0
1615918496584636,-2,-2,-3,8,-2,-2,1,-3
1615918496584636,-3,-5,-20,-15,-5,2,0,-1
1615918496584636,0,4,16,12,0,-1,1,1
1615918496606708,-2,-1,-14,1,0,-5,2,-4
1615918496606708,-4,-5,-6,-25,-4,-3,-9,0
1615918496607685,0,-1,1,21,1,3,8,0
1615918496607685,3,2,10,10,2,3,-4,-1
1615918496620675,0,-1,-15,-15,-3,1,2,2
1615918496620675,-1,-3,3,-10,-3,-6,-5,0
1615918496629626,-3,-2,-16,-9,-8,-10,-4,-4
1615918496629626,2,-2,7,13,0,-2,0,0
1615918496644268,-2,0,1,-24,-5,-3,6,-3
1615918496644268,-1,-1,6,16,2,9,-7,-1
1615918496645265,-2,-1,12,-2,1,-3,4,-1
1615918496645265,-4,-4,-27,-1,-3,1,-3,-2
1615918496666209,2,6,14,3,1,3,4,2
1615918496666209,-2,-3,-9,-1,-1,-2,2,-3
1615918496667208,-1,-2,-16,-2,-2,-3,-3,-2
1615918496667208,-1,-1,-9,-18,-2,-1,-7,0
1615918496681192,-1,-4,2,13,3,-1,6,0
1615918496681192,0,1,-1,10,1,5,0,0
1615918496689666,3,2,19,-4,-1,-2,-3,-1
1615918496689666,-3,-4,-15,-15,-1,2,4,-1
1615918496704601,2,9,21,17,-1,-6,-1,1
1615918496704601,-3,-7,-21,6,-1,-2,6,-1
1615918496704601,1,3,-4,-13,-2,-3,-20,-1
1615918496704601,0,0,5,13,1,7,5,-1
1615918496726567,-1,-4,-10,-17,-4,-2,3,1
1615918496726567,-2,-1,6,-16,0,-2,1,0
1615918496727541,-2,-3,-8,13,-1,0,4,0
1615918496727541,0,-1,-5,-10,-2,-1,-3,-1
1615918496740505,-1,3,21,16,-1,0,-3,-2
1615918496740505,2,4,24,-13,-3,-1,-1,0
1615918496749506,-4,-4,11,20,-1,5,4,-2
1615918496749506,2,0,0,-4,1,-3,-8,2
1615918496764466,0,-5,-6,-9,0,0,-2,0
1615918496764466,0,-2,-6,3,-1,-7,4,-2
1615918496764466,-1,3,12,-25,1,4,-8,-1
1615918496764466,-2,-1,5,22,-1,-3,-1,-2
1615918496786383,-1,-1,-8,-4,-1,0,4,-3
1615918496786383,-1,-3,-34,-31,-1,-4,-12,0
1615918496787380,1,1,17,25,5,0,7,2
1615918496787380,1,5,16,9,3,4,-1,0
1615918496801369,-1,-3,-8,-14,0,-1,-1,-2
1615918496801369,-3,-3,-8,-19,-4,0,1,-2
1615918496809347,-1,-4,5,15,-1,-2,4,0
1615918496809347,1,2,-1,-6,0,-2,-6,-2
1615918496824306,0,-1,13,24,-1,3,5,-1
1615918496824306,1,2,20,-10,-2,1,0,0
1615918496825303,-4,-5,-29,-6,-2,-7,-7,-3
1615918496825303,-1,2,-4,24,3,5,5,-1
1615918496846251,-1,-4,-13,-24,-2,2,-2,0
1615918496846251,0,-2,2,25,1,-5,2,-1
1615918496847221,0,1,-9,-4,-3,0,3,0
1615918496847221,-1,-4,-17,-30,-2,-2,-3,0
1615918496861183,-1,0,-8,0,0,-2,2,-2
1615918496861183,-1,1,15,15,-1,1,-10,-3
1615918496877149,2,0,-1,0,-1,-2,1,-1
1615918496877149,-2,-4,-18,-4,-3,-6,-3,-1
1615918496884146,-2,-1,-2,-15,1,-1,-3,-2
1615918496884146,-1,0,0,10,3,2,7,1
1615918496885120,-2,-1,-12,-23,-7,-3,-6,-3
1615918496885120,-3,-4,-6,8,1,2,-4,-2
1615918496907104,0,-1,4,0,-2,-3,3,1
1615918496907104,-2,-5,-5,-8,-2,-6,-1,-1
1615918496907104,2,4,31,24,2,-1,6,0
1615918496907104,-3,-4,-5,-11,-2,0,2,-2
1615918496930043,0,0,1,-10,-3,2,-5,-1
1615918496930043,-4,1,16,29,1,-1,0,0
1615918496931041,-1,-3,-6,-22,-3,-3,0,0
1615918496931041,1,2,12,11,-3,-1,-1,-2
1615918496944005,-1,0,4,5,3,0,-3,0
1615918496944005,-2,-1,-21,-11,-4,2,-3,-2
1615918496945004,0,-2,16,-19,3,-2,11,0
1615918496945004,-1,1,24,28,0,-3,-7,0
1615918496966944,1,2,-1,6,-3,-4,-15,-3
1615918496966944,-1,0,-3,-18,-1,4,3,1
1615918496967942,-5,-3,-5,-3,-1,0,-3,-3
1615918496967942,0,-4,-12,-11,-2,0,6,-2
1615918496990502,-3,-3,-3,8,1,-2,2,1
1615918496990502,1,-4,-13,-11,-2,2,-3,-1
1615918496991500,1,7,24,12,1,-2,-2,-1
1615918496991500,-3,-5,-15,-15,-4,-1,0,-2
1615918497004492,-2,0,7,3,-2,1,-2,-1
1615918497004492,0,-2,-7,4,-1,-1,0,-2
1615918497004492,2,2,7,13,0,3,7,4
1615918497004492,-2,-2,2,-11,-3,-2,1,-2
1615918497026431,-2,-3,-6,5,-2,6,-2,-2
1615918497026431,1,1,4,10,-4,-14,-6,-1
1615918497027404,-4,-1,-15,5,-2,3,6,-3
1615918497027404,2,0,-22,-6,-1,-4,-8,1
1615918497049375,0,1,-14,-12,-1,0,5,2
1615918497049375,-1,-2,-1,14,1,1,1,-2
1615918497050343,-2,-3,-19,1,0,-1,-9,-2
1615918497050343,-4,-3,-2,-22,-4,2,9,3
1615918497064305,-1,4,8,12,2,1,-2,-1
1615918497064305,-2,-2,-7,-14,-5,-5,-5,-4
1615918497065327,0,2,21,-2,-4,-3,-1,0
1615918497065327,-1,1,19,40,3,-2,3,-2
1615918497086271,0,-3,2,-19,-3,-4,0,-3
1615918497086271,0,-1,5,16,3,5,0,2
1615918497087245,-1,-1,-9,-22,-2,0,-2,-2
1615918497087245,-1,-1,-8,-6,-1,-4,-4,0
1615918497109210,-3,-2,1,7,0,-2,5,-2
1615918497109210,-1,1,5,5,0,0,3,-1
1615918497110208,1,-3,-4,-13,-2,-1,-4,1
1615918497110208,-3,-2,-1,-18,0,-1,-1,-3
1615918497124170,0,3,27,8,0,-2,-2,1
1615918497124170,-1,0,-2,4,1,3,-2,-1
1615918497125142,-2,-3,-2,6,0,-3,-4,-3
1615918497125142,3,5,25,6,-1,2,6,2
1615918497147109,-5,-9,-14,-15,-6,-10,-3,-3
1615918497147109,0,3,1,1,0,1,-2,-1
1615918497147109,-1,1,-5,5,-1,-1,-2,1
1615918497147109,-2,-3,-13,0,-2,-6,-1,-1
1615918497169491,-4,-4,-19,-16,-1,13,1,-1
1615918497169491,-2,-1,13,21,-3,-13,-2,-2
1615918497169491,1,0,-24,-14,0,-3,-1,1
1615918497169491,-1,-2,-5,-5,-1,3,-1,-2
1615918497184371,1,0,-15,-34,1,1,-3,-1
1615918497184371,-1,-1,12,21,1,-3,-1,-1
1615918497185368,-4,-9,-20,-4,1,5,0,-3
1615918497185368,0,3,3,-8,0,-6,-7,-3
1615918497207406,0,4,37,14,-1,1,-1,0
1615918497207406,1,-1,-17,-19,-3,-1,8,0
1615918497208377,-2,-5,-17,-16,-1,0,-16,-1
1615918497208377,-4,-3,-27,-7,-1,-2,1,-3
1615918497229323,2,7,25,36,1,-2,-3,0
1615918497229323,-2,0,-4,-29,-2,2,8,0
1615918497230319,1,3,11,11,-3,-5,11,-1
1615918497230319,-1,-3,-11,-5,-5,6,-13,-3
1615918497244282,-1,-6,-18,-1,-1,-10,-2,-1
1615918497244282,-3,-2,6,1,-1,5,-4,-3
1615918497245279,2,0,-4,-8,-1,-4,0,1
1615918497245279,-2,-2,20,1,-1,-3,1,-1
1615918497266222,0,0,7,8,1,7,6,-2
1615918497266222,-3,-5,-31,-18,0,-5,-1,-2
1615918497267220,-1,0,1,-7,0,-4,-8,0
1615918497267220,2,1,11,7,1,-1,1,1
1615918497289162,-3,-4,-7,-20,-2,-2,-3,0
1615918497289162,-1,2,7,38,2,7,0,-2
1615918497290159,-1,-4,9,-4,0,0,2,-1
1615918497290159,-2,0,3,-2,-2,-6,1,-3
1615918497304121,-1,-1,-11,4,2,0,-6,-2
1615918497304121,2,3,29,-11,-4,3,-2,1
1615918497305119,-1,0,-6,13,1,-4,-1,-2
1615918497305119,-1,-1,16,9,1,4,8,0
1615918497327060,-2,-2,-17,-2,-4,-10,-14,-4
1615918497327060,1,5,-8,-18,0,0,-1,0
1615918497327060,-2,-2,10,22,0,-1,1,-2
1615918497327060,-1,-1,-19,-24,-4,1,5,1
1615918497349001,-1,1,6,18,1,6,-8,-2
1615918497349001,-1,-4,-14,-6,-1,-5,-1,0
1615918497349999,-1,-1,-4,-14,-4,-8,-4,-2
1615918497349999,-1,-2,-8,-1,0,4,1,1
1615918497363961,-2,-2,3,14,-1,-4,5,0
1615918497363961,-1,0,-6,-6,-2,1,-7,0
1615918497364959,0,-2,-5,-14,-1,4,3,-1
1615918497364959,0,2,28,21,2,4,-4,0
1615918497386901,0,-4,-25,4,0,-8,1,-1
1615918497386901,-1,-1,-4,-18,0,1,5,1
1615918497387898,-3,-2,12,-7,-4,-1,0,-1
1615918497387898,-4,-4,-19,10,-1,-7,-4,-4
1615918497408841,2,1,6,-17,0,5,-10,-1
1615918497408841,-1,-4,0,-1,-4,-1,8,-1
1615918497409839,0,0,-6,-11,-2,-3,-3,0
1615918497409839,-2,-1,8,5,0,-1,-2,-2
1615918497423801,0,1,5,11,-2,4,8,0
1615918497423801,2,-2,-17,-23,-3,-11,-1,-1
1615918497424800,-2,1,38,33,-1,-2,-6,-2
1615918497424800,2,-1,-23,-33,-2,0,1,1
1615918497446741,-4,-3,18,29,2,-3,5,0
1615918497446741,2,6,34,3,3,4,-2,1
1615918497447738,0,2,-15,16,-2,7,1,0
1615918497447738,2,3,22,4,-3,-6,-5,2
1615918497468682,-2,-4,-14,-27,-6,-9,-1,-1
1615918497468682,-2,-4,-3,-1,-1,1,0,-3
1615918497469679,-1,2,-5,3,-1,1,-5,-2
1615918497469679,0,0,1,17,1,-2,0,1
1615918497483641,1,1,3,-9,-4,5,4,1
1615918497483641,-2,-4,-4,4,0,5,0,0
1615918497484639,-2,-4,-9,-20,-2,-12,0,-2
1615918497484639,2,3,-14,-1,1,-1,-7,-1
1615918497506580,-5,-1,-4,6,0,5,7,-2
1615918497506580,-4,-7,-12,-3,-4,-12,-3,0
1615918497507578,-1,0,-13,-22,1,14,6,2
1615918497507578,2,3,25,23,-2,-10,-5,-1
1615918497528788,-1,-4,-8,-11,-4,-1,4,1
1615918497528788,-2,1,9,5,0,0,-21,-5
1615918497529784,-1,-2,-16,7,1,-3,1,-1
1615918497529784,-1,0,2,-9,-1,1,2,-1
1615918497543770,0,0,-7,3,1,1,2,-1
1615918497543770,-1,-1,9,1,0,0,3,-2
1615918497544744,1,-1,-8,-16,1,2,-5,-1
1615918497544744,-5,-7,-25,18,1,3,0,-4
1615918497566709,3,4,21,-7,2,-4,-2,1
1615918497566709,0,-2,-9,-13,-2,2,2,-2
1615918497567683,2,2,33,34,-3,-4,1,1
1615918497567683,-3,-3,-14,-29,-2,0,-3,-1
1615918497589660,-2,0,2,7,1,1,-3,-2
1615918497589660,-2,2,-1,-7,-5,-2,9,-2
1615918497589660,-5,-5,-4,-6,0,-8,-21,-5
1615918497589660,-2,-3,-11,-12,-4,1,-1,-3
1615918497604652,2,0,7,14,1,-4,-5,1
1615918497604652,-1,1,12,12,-2,1,6,0
1615918497604652,-3,-1,-7,8,4,3,7,0
1615918497604652,0,-1,-6,-16,0,1,-3,0
1615918497626585,-4,-6,-29,-31,-4,-5,-2,-1
1615918497626585,1,2,34,52,4,0,-3,0
1615918497627559,-3,-1,3,4,0,2,4,-2
1615918497627559,0,-2,2,-4,0,0,-6,0
1615918497649524,3,4,9,-3,-1,-3,3,0
1615918497649524,-4,-8,-26,-26,-2,2,-2,-2
1615918497649524,1,1,-14,-2,-2,-10,4,0
1615918497649524,-2,0,19,12,-2,-1,-12,-3
1615918497664487,-3,-2,-1,-5,0,1,5,-1
1615918497664487,0,2,-8,5,3,0,-1,0
1615918497665534,-1,-2,-14,-18,-4,3,-1,-2
1615918497665534,-3,-1,9,12,-3,-13,5,-3
1615918497686592,-2,-4,-19,-16,-2,-9,-18,-3
1615918497686592,4,5,3,12,-1,3,-1,4
1615918497687563,-1,-5,-3,-4,0,6,7,0
1615918497687563,0,4,8,-2,1,2,3,1
1615918497709659,-1,-2,-5,-4,0,-1,-5,-2
1615918497709659,-2,-4,-19,-21,-1,-1,0,-2
1615918497709659,1,0,8,14,2,3,-1,2
1615918497709659,-2,-3,-12,-7,-3,-4,-1,-1
1615918497723647,1,3,6,3,1,-1,5,0
1615918497723647,0,-3,-32,3,-4,-3,0,0
1615918497731607,-3,-1,12,-7,-1,-2,-18,-5
1615918497731607,-1,-5,-24,-38,-1,9,5,0
1615918497746568,3,7,33,35,0,-6,3,3
1615918497746568,0,1,18,9,-1,-3,-3,-2
1615918497747565,-1,-4,-14,-4,-2,3,5,-1
1615918497747565,-2,1,14,6,-2,-3,-4,-4
1615918497769507,-4,-4,-19,-23,-2,5,-5,-4
1615918497769507,-1,-2,-10,0,-1,-5,1,-2
1615918497769507,-1,1,14,14,-4,-11,-1,1
1615918497769507,-2,-1,-14,-8,-2,-4,-4,1
1615918497783469,-2,-1,19,24,-1,3,3,-1
1615918497783469,0,-1,-1,-10,-3,5,0,0
1615918497791473,0,0,1,-20,-2,4,6,0
1615918497791473,-1,-1,-5,11,3,-9,-6,-2
1615918497806408,0,-1,13,30,1,3,4,1
1615918497806408,-1,-1,-16,-17,-5,-4,-6,0
1615918497807406,-3,-1,-7,9,0,3,3,-1
1615918497807406,1,3,26,-5,-4,-4,2,0
1615918497829347,1,-3,-16,-32,-3,0,-2,1
1615918497829347,0,1,25,24,1,-2,2,-3
1615918497830345,1,1,9,-5,-1,2,-4,1
1615918497830345,-3,-1,-8,19,0,-5,5,-1
1615918497843309,-2,3,7,-3,-3,-7,-16,-3
1615918497843309,-3,-6,-37,-33,1,-4,-4,-2
1615918497851313,-2,1,14,11,-1,2,9,0
1615918497851313,0,-3,-31,4,0,-2,-12,0
1615918497875225,-2,-1,-3,-7,-2,0,4,-3
1615918497875225,-1,0,-18,-9,-2,-6,-4,0
1615918497875225,1,1,9,11,1,0,-3,-2
1615918497875225,-3,-6,-14,-42,-3,1,6,-3
1615918497889211,2,0,21,28,-1,3,1,-1
1615918497889211,1,4,24,12,0,-1,-4,0
1615918497896170,-2,1,-5,1,-1,-3,-2,-3
1615918497896170,0,1,4,-12,0,6,1,1
1615918497903176,-1,-4,-26,-16,-3,-10,-1,-1
1615918497903176,0,0,27,12,0,5,-4,1
1615918497912127,-2,-3,-7,11,1,-2,7,0
1615918497912127,1,2,5,0,-1,3,-12,0
1615918497927113,-3,-3,-3,6,-3,-1,-4,-1
1615918497927113,-2,-5,-29,-19,1,-4,1,-3
1615918497927113,1,2,8,-3,2,-2,0,2
1615918497927113,-2,-4,-7,14,-1,1,5,-1
1615918497949052,0,4,8,-14,5,10,3,2
1615918497949052,-2,-2,-7,3,-1,-3,6,-4
1615918497950025,2,-2,-5,-14,-3,-9,-17,-2
1615918497950025,1,0,18,14,0,-2,-1,-2
1615918497964024,0,-6,-23,-34,-2,-1,2,0
1615918497964024,-4,-3,-6,24,1,6,0,0
1615918497971990,1,3,20,9,-2,5,2,2
1615918497971990,-2,-3,-13,-4,-5,-8,3,-2
1615918497986951,3,5,12,15,-1,-1,-14,0
1615918497986951,0,-1,5,-8,-3,-3,0,1
1615918497987923,-3,-5,-31,-25,-3,-4,2,-1
1615918497987923,-4,0,6,16,-3,-3,-1,-3
1615918498008891,-3,-4,-10,-1,-4,-6,4,0
1615918498008891,-2,-2,3,-4,-1,4,-4,0
1615918498009891,0,0,5,9,1,-5,-2,-1
1615918498009891,1,1,4,-5,1,6,2,1
1615918498023827,-2,-7,-28,-42,-5,-9,-2,-3
1615918498023827,2,9,52,62,4,2,-3,1
1615918498031831,-2,-3,-2,-21,-4,-3,0,-3
1615918498031831,2,3,-13,14,0,6,-1,2
1615918498046790,-4,-3,27,18,1,1,8,0
1615918498046790,-1,2,-3,-14,0,0,-9,1
1615918498047789,-3,-4,-14,-3,-4,2,0,-2
1615918498047789,1,1,0,4,0,-7,-13,0
1615918498068707,-2,-3,2,9,-1,0,2,-3
1615918498068707,2,1,3,-21,-1,-5,5,0
1615918498069704,1,0,-21,2,-3,7,6,0
1615918498069704,-2,-3,12,-16,-3,-3,-4,-3
1615918498083668,0,-2,-32,0,0,-1,-4,-1
1615918498083668,0,5,18,-4,-3,2,-1,-1
1615918498091671,-2,0,6,-11,-2,-7,-3,-3
1615918498091671,-2,-6,-11,-1,-1,3,7,-2
1615918498106631,-1,-4,-22,-6,-1,-5,-2,-1
1615918498106631,1,1,7,8,-1,-3,-12,-1
1615918498107604,-1,0,5,-2,1,-3,-1,-1
1615918498107604,-2,0,18,19,1,8,4,1
1615918498129569,-2,-2,-14,-17,1,2,3,0
1615918498129569,0,0,6,11,1,-4,1,-1
1615918498129569,-1,-3,-7,-11,1,3,0,-2
1615918498129569,0,4,2,12,-2,2,-3,0
1615918498143888,-2,-3,-10,-7,0,-6,-6,-3
1615918498143888,-1,-1,-11,-10,-1,1,-1,-2
1615918498151892,-3,-3,-5,2,-2,2,-1,0
1615918498151892,-1,-2,-12,-4,-1,-10,5,-1
1615918498166828,-1,1,-3,-5,2,6,-1,0
1615918498166828,-1,0,7,-25,-1,-3,-4,-3
1615918498167825,0,-1,6,26,-1,4,5,0
1615918498167825,0,-1,-11,-11,1,5,-8,-1
1615918498188793,1,0,-1,2,-4,-9,2,0
1615918498188793,-1,-2,4,-3,-3,1,8,1
1615918498189766,3,5,-2,-7,1,1,-2,3
1615918498189766,-4,-6,-12,-11,-3,-8,1,-2
1615918498219709,-1,6,35,14,1,0,-6,-2
1615918498219709,-2,-5,-28,-19,1,1,-1,0
1615918498220684,0,0,6,3,0,-3,-1,-3
1615918498220684,1,1,12,7,1,4,-1,0
1615918498226691,-3,2,16,36,-3,-5,-1,-3
1615918498226691,1,-1,-18,-12,1,-2,7,0
1615918498227665,-2,-5,1,5,-3,2,-9,-2
1615918498227665,-4,-4,-4,-9,-1,-6,-15,-2
1615918498249633,1,-1,-9,-1,-2,-3,-2,-3
1615918498249633,-1,-1,18,9,0,-3,1,-1
1615918498249633,1,1,-3,3,-1,0,0,-1
1615918498249633,1,3,13,-5,0,0,7,-1
1615918498272573,1,1,4,1,1,6,0,1
1615918498272573,-1,-2,-16,-5,-5,-8,-3,-1
1615918498273569,-5,-6,-8,-9,-1,-3,-1,-1
1615918498273569,1,1,9,3,-1,-2,1,0
1615918498286762,0,0,-7,-32,0,3,0,-1
1615918498286762,0,0,3,28,0,3,3,1
1615918498287760,-2,1,9,-1,-1,-5,-5,-2
1615918498287760,1,-3,6,-13,-1,-3,6,2
1615918498308722,0,-2,-11,16,-1,6,-3,2
1615918498308722,0,2,12,-5,0,-3,-4,-1
1615918498309720,-1,-2,-9,-3,-1,-3,7,-2
1615918498309720,-4,2,-10,9,-2,-4,-13,-4
1615918498332683,2,-2,2,2,-2,7,7,-1
1615918498332683,-3,-2,-32,-18,-5,-7,-3,-2
1615918498333684,-3,-3,2,8,0,-1,-3,-2
1615918498333684,0,1,-11,-13,1,5,9,1
1615918498346621,-2,0,10,10,1,-3,-2,-1
1615918498346621,-3,0,26,3,-3,-4,-4,-4
1615918498347620,3,4,25,26,0,-1,3,2
1615918498347620,-1,-2,-11,-6,-2,2,4,1
1615918498369584,-5,-3,-18,-37,1,-8,-12,-4
1615918498369584,1,2,-7,25,0,5,3,0
1615918498369584,-2,-3,-14,-27,-3,-2,-2,-1
1615918498369584,-1,2,13,-1,-1,0,4,1
1615918498391525,0,-2,3,10,-1,1,6,0
1615918498391525,-1,-3,6,-14,-2,-5,-3,0
1615918498392498,0,0,-6,-11,-2,3,-4,-2
1615918498392498,1,-3,0,9,1,0,-3,1
1615918498408456,-6,1,30,18,-2,-6,4,-3
1615918498408456,-2,-5,-9,19,0,2,-14,-3
1615918498409453,0,-4,-25,-19,-2,-8,0,0
1615918498409453,0,5,34,-11,-2,-4,2,-1
1615918498429425,0,0,-8,14,-2,-1,-17,0
1615918498429425,-3,-6,-8,-20,1,2,6,-1
1615918498430422,-4,-3,-15,0,-3,-2,-4,-3
1615918498430422,-1,1,22,6,-2,-3,0,0
1615918498451342,2,0,4,10,0,3,8,2
1615918498451342,0,0,-2,-5,-2,-2,0,-3
1615918498452340,-1,-2,-20,0,0,3,-4,0
1615918498452340,-2,-3,-19,-1,-4,-5,0,-1
1615918498466329,-2,1,11,3,0,-4,-2,-4
1615918498466329,-3,-6,-11,-9,-1,0,-2,0
1615918498467299,1,2,27,5,0,-2,3,0
1615918498467299,-1,1,7,4,2,4,0,-2
1615918498489265,-1,-2,9,-7,-1,1,6,-1
1615918498489265,0,0,-20,-3,-2,-4,-11,0
1615918498491234,-1,0,1,1,-1,1,-1,-1
1615918498491234,1,-1,-7,4,-1,1,-1,-2
1615918498511181,-1,-2,-11,-30,-6,-2,4,0
1615918498511181,1,-2,-12,15,0,1,6,0
1615918498519159,-1,2,6,13,0,-5,-1,0
1615918498519159,-2,-4,-13,-10,-1,0,-7,-2
1615918498527138,-2,-3,-9,0,1,5,5,1
1615918498527138,0,4,34,-1,-2,-7,5,0
1615918498534144,-1,-4,-12,1,0,-1,-4,0
1615918498534144,-1,-3,-11,-17,-1,-2,5,-2
1615918498549080,0,-1,4,-4,-1,-3,3,-2
1615918498549080,-4,-4,-19,-3,0,3,-14,-5
1615918498550078,-1,5,13,-17,-1,-5,0,2
1615918498550078,-2,-2,-1,7,0,-3,0,0
1615918498572042,-3,-2,9,17,2,-3,-5,-2
1615918498572042,1,-3,-17,13,1,3,6,1
1615918498572042,-6,-8,-9,-55,-8,-6,-3,-4
1615918498572042,2,5,2,59,5,2,-2,-1
1615918498587003,3,7,19,-3,-3,2,2,2
1615918498587003,3,0,-3,-14,-1,-8,6,0
1615918498587977,-4,-4,-10,3,1,0,-5,-2
1615918498587977,-4,-3,-17,-21,-1,8,2,-2
1615918498608944,2,1,20,18,-1,-9,-4,1
1615918498608944,-1,-1,3,-10,0,-4,-6,-1
1615918498609918,1,-1,-13,-4,-1,-4,7,-1
1615918498609918,-2,-8,-13,-28,-1,-4,-19,-3
1615918498631859,0,2,14,34,2,6,4,2
1615918498631859,1,3,22,-16,0,0,3,-1
1615918498632856,-2,-3,-15,5,2,0,4,1
1615918498632856,-2,0,9,0,-4,-3,3,-1
1615918498646842,-2,-6,-14,-23,-3,-2,-5,-3
1615918498646842,-1,4,11,-4,0,-2,-1,-2
1615918498647843,3,3,14,29,3,8,0,2
1615918498647843,0,1,7,-2,0,-2,2,0
1615918498668759,-2,-5,-19,1,0,1,-5,-1
1615918498668759,-2,2,-1,-7,-3,-6,2,-1
1615918498669757,0,-1,6,4,-3,-5,3,-1
1615918498669757,-1,-4,-19,-5,-1,3,3,-1
1615918498691671,-1,1,0,-15,4,-1,-7,0
1615918498691671,-1,-6,-27,-2,0,3,6,0
1615918498692670,1,4,45,13,1,5,-13,-2
1615918498692670,2,5,5,-3,0,-5,9,0
1615918498706631,-2,-3,-11,-1,-4,-4,0,-1
1615918498706631,-2,-3,-19,-21,-1,0,0,-2
1615918498707629,2,-1,5,23,0,-1,-1,-2
1615918498707629,0,-1,4,-7,1,0,-2,0
1615918498729571,2,3,4,-6,-3,-1,1,-2
1615918498729571,-3,0,-7,6,-1,-3,-4,-2
1615918498729571,-3,-6,-1,9,-5,-1,-1,-2
1615918498729571,-4,-1,8,-9,0,0,-4,-1
1615918498751426,-1,0,-6,0,0,-2,2,-1
1615918498751426,-2,-2,7,5,-2,2,8,-1
1615918498752398,-2,-2,-23,-18,-1,1,-18,-4
1615918498752398,2,3,37,18,-1,2,4,0
1615918498766361,1,-3,-21,-25,0,-7,0,1
1615918498766361,-1,1,36,34,1,2,-2,1
1615918498767358,-5,-6,-34,-9,-1,-7,1,-4
1615918498767358,-1,-1,11,1,1,4,-4,-1
1615918498789300,-3,-2,-14,12,0,-2,3,-2
1615918498789300,-2,-3,-8,-7,-1,-6,-16,-1
1615918498796281,-2,-4,12,-6,1,4,2,-1
1615918498796281,0,3,-33,3,-2,3,2,2
1615918498812239,2,1,-9,-15,-1,-7,1,2
1615918498812239,0,-2,5,11,-2,1,0,-1
1615918498812239,-1,-2,-9,-19,-2,-4,1,-3
1615918498812239,1,-1,4,0,-2,-2,-1,-1
1615918498826201,-2,-3,-1,17,1,6,2,-1
1615918498826201,-2,1,-8,-21,-1,-1,5,2
1615918498835177,0,1,20,14,0,1,1,1
1615918498835177,0,-3,-12,-7,0,2,2,-2
1615918498849140,-6,-5,12,15,-3,0,-10,-5
1615918498849140,-1,1,17,4,-1,-9,-4,-1
1615918498850137,0,-2,-14,-19,1,-3,5,1
1615918498850137,-3,-9,-18,-4,0,2,6,-3
1615918498872107,2,6,17,9,1,6,1,2
1615918498872107,-1,-2,-2,-16,-3,1,6,-2
1615918498872107,0,4,12,9,-1,-6,-10,-1
1615918498872107,-2,-3,-8,3,-1,-6,2,-1
1615918498886065,-2,-7,-11,-9,0,1,-1,-2
1615918498886065,-1,-2,-7,-29,-2,6,-9,-3
1615918498894020,0,1,-1,26,3,-1,4,0
1615918498894020,-3,0,24,7,-4,-10,-2,1
1615918498908979,-1,-1,-14,-25,-5,3,7,-2
1615918498908979,0,2,0,-3,0,-2,-4,-1
1615918498909976,0,0,-2,-6,0,1,-2,-2
1615918498909976,-2,-4,-21,-8,-4,0,-7,-4
1615918498931943,0,2,9,10,-1,-4,-4,0
1615918498931943,-2,-2,-6,-10,2,-3,1,-1
1615918498932916,-1,1,6,5,-3,0,-3,-1
1615918498932916,0,0,8,18,1,2,2,0
1615918498945882,-1,-1,-20,-27,-2,-3,4,0
1615918498945882,0,1,2,27,-4,-2,-16,-3
1615918498953884,0,-3,7,-3,-4,-2,12,1
1615918498953884,1,9,51,11,-1,-4,-6,0
1615918498968844,-2,-1,-9,0,1,-1,-2,-2
1615918498968844,1,-3,-6,-8,-2,0,4,3
1615918498969843,-4,-4,-22,-5,-2,1,-1,0
1615918498969843,0,1,-9,17,1,-5,-2,-2
1615918498991783,-1,-1,-4,-14,-3,1,-2,-1
1615918498991783,-1,-3,8,19,0,1,7,0
1615918498993754,-1,3,-2,-38,-4,-7,-7,-1
1615918498993754,-1,1,1,-18,1,2,1,1
1615918499005721,-1,-2,5,42,-2,-4,2,-1
1615918499005721,-2,0,2,12,1,4,-2,-1
1615918499014736,0,-1,-4,-14,-2,-4,0,-2
1615918499014736,-2,-5,-24,-22,-2,-2,-3,0
1615918499029684,2,1,7,-5,-2,-6,-4,-1
1615918499029684,0,-3,-6,11,0,2,5,-2
1615918499029684,0,1,2,12,-1,2,1,2
1615918499029684,0,1,8,-1,-1,2,-3,-1
1615918499052637,-4,-6,-16,-8,-3,1,7,0
1615918499052637,1,4,7,-8,1,0,-11,1
1615918499052637,1,1,5,4,-1,4,-1,-1
1615918499052637,-1,-3,-2,1,-3,2,6,0
1615918499065591,-4,0,18,14,3,-1,-10,-3
1615918499065591,0,-4,-6,0,-1,-4,2,-1
1615918499074561,1,1,5,-3,1,-1,2,1
1615918499074561,-1,2,-12,-4,-4,-5,-2,-2
1615918499089524,0,0,-2,-16,-7,-3,1,0
1615918499089524,-1,-4,-18,0,1,0,0,-2
1615918499090519,0,-3,-4,1,-1,0,-3,-4
1615918499090519,-1,-1,-4,-4,-1,0,3,0
1615918499111439,0,-2,-12,-12,3,3,-1,2
1615918499111439,-2,0,-4,27,0,-3,0,1
1615918499112437,-2,-1,-11,-20,-1,-5,-2,-1
1615918499112437,-1,-4,-3,18,0,1,-4,-1
1615918499135403,1,2,-3,-15,-4,-7,-1,-1
1615918499135403,-1,1,13,2,4,9,7,-2
1615918499136372,-2,1,-10,-7,-1,-1,-1,-1
1615918499136372,-3,-4,-3,-6,-3,-8,-13,-3
1615918499149361,0,-1,3,13,4,-1,0,1
1615918499149361,-1,2,9,7,-1,0,-2,-2
1615918499150359,1,-2,23,-3,-2,1,7,3
1615918499150359,-3,-3,-10,-29,3,4,0,-4
1615918499171303,-1,-2,15,19,-3,-6,-7,-3
1615918499171303,-1,-1,-5,-34,-5,1,2,-1
1615918499172310,1,0,17,23,0,-6,-5,-2
1615918499172310,0,-1,26,31,-1,-5,-2,-1
1615918499195216,-2,-3,-7,-16,0,6,1,-1
1615918499195216,-1,-2,-32,-9,-3,-4,0,-1
1615918499196212,-2,-2,10,0,-1,3,-3,-1
1615918499196212,-2,-3,-24,-18,-2,-1,4,0
1615918499209201,1,0,-2,11,-1,0,-14,-2
1615918499209201,1,-2,12,18,1,-3,0,0
1615918499210175,-3,-3,-22,-16,0,9,2,0
1615918499210175,-1,4,5,5,-1,-13,-5,0
1615918499231333,-3,-2,-8,-7,1,5,9,-1
1615918499231333,-3,-3,-14,-30,-4,-6,-12,-2
1615918499232306,1,5,45,46,4,1,-3,-2
1615918499232306,1,-1,9,8,0,3,4,0
1615918499254647,0,2,-15,-15,0,-1,1,-1
1615918499254647,-3,-5,4,-4,-3,-7,-1,-3
1615918499255622,0,2,-19,3,0,1,0,0
1615918499255622,-1,3,13,-4,-1,-4,1,-1
1615918499269610,0,-1,-5,6,1,3,-4,0
1615918499269610,-1,-1,3,-2,-2,-1,2,1
1615918499269610,-3,-6,-13,-4,-1,-2,0,-3
1615918499269610,-2,-3,-17,-14,0,5,0,-1
1615918499291526,1,4,6,10,1,-2,2,1
1615918499291526,-3,1,12,-18,-3,5,1,0
1615918499293520,-3,-1,8,7,-2,-9,-4,0
1615918499293520,0,-3,-21,-2,0,1,2,1
1615918499314489,-2,-2,9,-9,-3,-4,-2,-3
1615918499314489,-2,-3,-22,11,0,7,-2,-2
1615918499315462,-2,-2,12,-23,-2,-4,-4,-1
1615918499315462,0,1,0,27,-2,-1,8,0
1615918499329424,-4,-3,-2,-22,-3,-6,-14,-1
1615918499329424,1,1,3,2,2,4,6,0
1615918499330422,1,-2,-30,-11,-1,-8,-11,-2
1615918499330422,-4,-2,30,21,0,3,-2,-1
1615918499352387,-2,-3,-11,-12,-2,-5,2,-1
1615918499352387,0,-1,0,5,-5,-1,6,1
1615918499353387,0,1,-25,-6,-1,5,4,0
1615918499353387,1,-1,-10,-25,-3,-5,-7,-3
1615918499375338,1,0,-1,-11,0,4,4,2
1615918499375338,0,5,52,49,2,-6,-7,-3
1615918499375338,-3,-7,-12,0,-2,2,1,-1
1615918499375338,1,1,-17,-25,0,4,-4,0
1615918499389280,-4,-2,20,6,-4,-2,1,-3
1615918499389280,-2,-2,-21,-15,-2,-3,3,0
1615918499390289,-2,-1,4,-6,2,0,-16,-3
1615918499390289,1,4,37,28,4,0,5,2
1615918499411878,-1,-1,-9,-7,-3,-2,0,1
1615918499411878,2,0,-18,2,3,-2,10,3
1615918499412871,-2,-3,-23,3,-1,1,0,-1
1615918499412871,-3,-3,0,-26,-3,2,-5,-2
1615918499434723,2,3,-4,33,3,-4,-2,0
1615918499434723,-2,-3,-7,-18,-2,0,-2,-3
1615918499435751,0,-1,-4,0,-2,2,8,1
1615918499435751,1,-1,-7,-12,0,1,0,1
1615918499449681,-4,-2,1,2,-1,-3,0,-2
1615918499449681,-3,-5,-4,-21,-4,-2,0,0
1615918499449681,1,5,34,29,0,0,2,1
1615918499449681,0,-3,-18,7,-5,-11,-13,-3
1615918499471659,0,-7,-16,-15,-3,1,5,0
1615918499471659,0,6,21,4,4,2,-1,0
1615918499472631,0,-1,-8,-14,-1,1,4,0
1615918499472631,-3,-1,2,15,1,-1,5,-2
1615918499495569,0,-1,1,-1,-1,-3,-8,-1
1615918499495569,-2,0,-6,-9,-4,-4,-5,-1
1615918499496567,-1,-2,-10,-14,2,3,6,-1
1615918499496567,-2,1,6,-8,-1,4,-5,-1
1615918499509555,1,3,8,12,-2,-9,-2,-1
1615918499509555,-3,-4,-18,-6,0,6,2,-4
1615918499516512,-2,-3,2,-29,-3,-4,-8,-1
1615918499516512,3,1,13,37,0,-1,2,0
1615918499531497,0,1,1,-20,0,8,7,-1
1615918499531497,-1,-2,12,21,1,-1,-10,-2
1615918499532484,0,-2,2,-17,-3,-4,7,-2
1615918499532484,-1,-2,6,16,-2,-3,0,-1
1615918499555433,-1,-1,-9,-11,-1,0,0,1
1615918499555433,-1,-3,-30,-8,-3,-6,-2,-1
1615918499555433,3,2,5,16,1,1,0,2
1615918499555433,1,0,-17,-26,0,3,1,0
1615918499569399,-4,-4,15,33,2,-2,-5,-3
1615918499569399,-2,-1,-15,-32,-4,-2,-3,-2
1615918499570381,2,-3,-10,29,0,-1,4,2
1615918499570381,-2,-2,-13,-16,-3,-12,3,-2
1615918499591336,0,3,-3,-5,-2,5,-11,1
1615918499591336,0,-4,-16,-9,0,-1,2,0
1615918499592337,-2,2,32,1,0,3,3,-1
1615918499592337,1,2,6,-10,1,8,9,1
1615918499615272,-1,-7,-37,16,1,-8,-4,0
1615918499615272,-6,-2,7,-11,-4,-1,-3,-2
1615918499615272,-1,4,-7,9,-1,0,-2,-1
1615918499615272,0,-1,13,-4,-1,0,-1,0
1615918499637189,0,-4,-10,-23,-3,5,6,-3
1615918499637189,3,3,-15,9,0,-3,2,2
1615918499638187,-2,-3,1,5,-2,-4,-6,-1
1615918499638187,-2,-6,-17,-4,-1,0,-7,-3
1615918499652176,0,1,28,1,3,5,2,0
1615918499652176,1,0,19,15,2,-1,1,2
1615918499652176,1,1,10,-4,-2,-4,3,0
1615918499652176,-3,-1,1,-15,-2,-2,-5,-1
1615918499675112,0,-1,11,22,0,-6,2,-1
1615918499675112,0,3,-1,-14,-1,0,-2,-2
1615918499676112,-1,-5,-16,-16,-1,-3,-9,-2
1615918499676112,-1,0,23,22,-1,0,9,1
1615918499690049,-1,6,11,3,-2,-1,-11,-1
1615918499690049,-2,-5,-17,-6,-6,-3,4,-2
1615918499691046,-3,-3,-6,-8,-1,-6,-7,-3
1615918499691046,-1,-3,-2,5,-2,-7,-5,-1
1615918499712015,-3,-3,-6,-22,-2,5,5,-2
1615918499712015,1,1,21,9,2,1,-7,-2
1615918499713012,0,-1,-9,-5,-1,-1,6,0
1615918499713012,-5,-6,-13,5,-2,1,0,-1
1615918499734955,0,-1,-13,-22,-1,-7,2,-2
1615918499734955,-2,-3,12,8,0,-2,-4,-2
1615918499735926,-1,-3,-9,-5,-4,2,0,-2
1615918499735926,1,6,18,26,3,-1,-3,0
1615918499748892,-1,-2,-27,-37,-8,-2,5,-2
1615918499748892,1,5,35,25,2,0,-12,0
1615918499756894,-3,-5,-4,0,1,0,-2,-2
1615918499756894,1,3,26,-1,2,2,2,0
1615918499771857,-3,-5,-16,-1,1,4,6,0
1615918499771857,-2,-3,-14,-13,1,-3,-5,-1
1615918499772828,-2,2,20,7,-2,-2,-3,-2
1615918499772828,1,-1,-19,-2,-1,4,-1,-1
1615918499794769,-1,-5,5,8,-1,1,-1,-3
1615918499794769,-2,-1,3,-19,-3,-9,3,-1
1615918499795790,1,2,8,13,1,0,0,1
1615918499795790,-2,-4,-25,-7,-3,-1,-3,-3
1615918499808755,4,5,26,18,2,2,-1,2
1615918499808755,-2,-2,-15,-14,-1,5,0,-3
1615918499816736,-3,-5,-4,0,-4,-9,-4,-3
1615918499816736,1,-2,-25,-20,-7,-5,4,1
1615918499839673,-3,-2,-3,12,0,-6,-4,1
1615918499839673,0,-4,-32,-11,-2,-2,-15,-3
1615918499840682,3,3,29,19,1,1,5,2
1615918499840682,-3,-4,-7,-14,1,2,1,-3
1615918499854635,-4,-1,-17,2,-1,1,1,-1
1615918499854635,2,1,16,14,0,-4,12,2
1615918499854635,-1,-1,-8,-10,-4,0,-13,-2
1615918499854635,-2,-2,-25,17,3,-3,-3,-1
1615918499868596,-3,-1,17,-12,-2,2,-2,-2
1615918499868596,-1,-2,-8,6,0,-7,1,0
1615918499876574,0,2,22,3,5,5,2,-2
1615918499876574,1,-2,-21,-2,-3,0,-2,-2
1615918499891534,2,3,17,16,0,-1,5,4
1615918499891534,-1,-3,-7,2,-2,3,7,-1
1615918499892532,-1,-4,-15,-14,1,1,-12,-2
1615918499892532,-2,-2,-15,-26,-2,-2,-4,-1
1615918499914473,-1,1,32,22,-2,-8,-2,-4
1615918499914473,0,0,6,-2,0,3,5,2
1615918499915473,0,-1,-1,18,-1,2,4,1
1615918499915473,-2,1,-1,0,-3,1,-1,-1
1615918499928439,-1,0,0,-19,0,1,-4,-1
1615918499928439,-1,-2,6,6,-2,-2,-3,0
1615918499936414,-1,-1,-14,-15,-4,-4,2,-1
1615918499936414,0,0,37,34,2,2,-4,0
1615918499951375,-1,1,-26,-11,1,1,3,0
1615918499951375,0,0,11,4,-1,0,-2,0
1615918499952374,-3,-2,-13,-9,0,0,6,-1
1615918499952374,-2,0,13,-5,0,-1,1,-2
1615918499974298,-2,-4,-12,-17,-4,-4,-22,-4
1615918499974298,-2,-3,-12,25,0,-1,-1,-1
1615918499975299,0,0,2,-9,-1,-2,7,1
1615918499975299,-1,-5,6,-6,-2,-8,2,1
1615918499988595,0,1,14,3,-1,2,1,0
1615918499988595,-1,-2,-29,-18,-6,-2,0,-2
1615918499996601,0,1,29,23,0,2,-1,0
1615918499996601,-3,-2,-18,-26,-1,-2,-2,-2
1615918500011535,3,2,-2,-1,1,0,1,0
1615918500011535,-6,-4,12,6,0,1,-3,-3
1615918500012531,0,3,-8,-14,-1,-7,-1,0
1615918500012531,0,-2,-6,0,-2,-1,-3,-1
1615918500034496,-1,-3,-8,-3,0,2,3,-1
1615918500034496,0,-1,0,12,-1,0,2,-2
1615918500035495,-1,-5,-22,-15,-5,-4,-3,-3
1615918500035495,1,4,34,21,3,3,2,2
1615918500048615,-2,-3,-17,-17,-3,-6,3,-1
1615918500048615,1,1,-3,-1,0,1,-9,-3
1615918500056593,-1,1,6,-9,1,1,-1,0
1615918500056593,0,-2,1,7,-2,-4,1,-1
1615918500071578,-1,1,11,12,1,4,8,1
1615918500071578,1,-2,-10,4,0,2,1,2
1615918500072551,-2,-4,-1,-16,-2,-1,-1,-2
1615918500072551,1,3,-9,-1,1,4,4,1
1615918500094494,0,0,9,17,1,-1,-3,0
1615918500094494,-1,-2,4,-21,-3,-12,0,-2
1615918500095490,-1,-2,2,24,-1,0,-3,-2
1615918500095490,-4,-3,-5,-40,-5,-6,0,-3
1615918500117457,3,3,-12,20,2,5,2,2
1615918500117457,-3,0,10,-5,2,7,4,-3
1615918500118456,-1,-2,-17,-4,-1,-8,-10,-2
1615918500118456,1,-1,-9,-7,-1,1,-3,1
1615918500131420,-4,-4,-1,-27,-7,-4,-6,-6
1615918500131420,1,0,13,14,-1,-7,3,1
1615918500132391,2,1,-9,4,1,2,0,0
1615918500132391,-3,-4,-5,-11,0,-2,-4,-3
1615918500154356,-2,1,13,14,-4,-3,-2,-1
1615918500154356,3,2,18,3,0,5,-2,0
1615918500161315,-6,-4,-9,8,-2,-2,-1,-1
1615918500161315,0,-6,-21,-43,-4,-3,1,0
1615918500177274,1,-3,-8,42,2,-1,7,0
1615918500177274,1,1,-3,-6,2,0,-10,0
1615918500178269,0,-4,8,-8,-5,-7,1,-1
1615918500178269,0,-1,-7,-3,0,7,1,0
1615918500191258,0,-1,4,1,1,-6,3,-1
1615918500191258,-3,-2,-9,-20,-2,6,-4,-1
1615918500192255,0,3,10,36,5,5,5,1
1615918500192255,1,0,5,2,-3,-8,-4,-3
1615918500214196,-2,-5,-11,-20,-3,-3,-5,-3
1615918500214196,-2,3,14,-3,2,-1,3,0
1615918500215170,-1,-2,-29,-13,-1,3,0,0
1615918500215170,0,1,11,7,-1,-5,0,0
1615918500237135,0,-3,-12,9,0,0,-2,-1
1615918500237135,0,0,3,-3,1,4,0,-1
1615918500238109,-4,-5,-10,-23,-6,-1,2,-3
1615918500238109,-2,1,0,5,1,-4,3,-1
1615918500252101,-1,-2,0,-7,1,2,-14,-3
1615918500252101,-2,-5,-18,-4,-4,-5,-11,-1
1615918500253100,-1,0,-4,-3,2,5,0,0
1615918500253100,-2,1,44,7,-3,0,4,-2
1615918500274038,0,0,-9,-15,-1,-1,6,2
1615918500274038,1,3,15,43,-1,-2,0,0
1615918500275036,-1,-2,-17,-24,-2,4,-2,-4
1615918500275036,0,-2,6,15,0,-15,-9,-2
1615918500296952,-1,-1,0,-11,-2,2,0,-2
1615918500296952,-5,-6,-15,-21,-5,-3,2,-3
1615918500297968,1,-1,-3,14,0,4,7,3
1615918500297968,1,5,-12,-3,0,1,0,0
1615918500311911,-4,-5,7,0,0,-6,-12,-2
1615918500311911,-1,-3,-18,-1,0,1,6,0
1615918500312909,2,1,2,-23,-4,-5,-2,1
1615918500312909,-2,-4,-15,20,2,4,-1,-3
1615918500333852,1,2,5,-4,-3,0,3,0
1615918500333852,-3,-7,-18,-34,-6,-2,-1,-1
1615918500334849,0,4,34,53,5,4,-1,-1
1615918500334849,-1,-4,-15,-13,-1,-1,3,-4
1615918500357070,-2,-3,-12,-23,-1,-4,-13,-1
1615918500357070,0,1,35,37,-3,-5,3,0
1615918500358068,1,3,0,-8,-2,-3,-8,-1
1615918500358068,-3,-2,1,6,0,3,0,0
1615918500372698,0,-2,-11,-3,0,2,4,1
1615918500372698,1,2,4,-12,0,0,3,2
1615918500372698,-3,-6,7,-24,-1,-5,-2,-2
1615918500372698,0,5,39,50,2,-4,-4,0
1615918500393906,-3,-3,-11,-22,-5,3,2,-2
1615918500393906,0,1,12,28,2,-1,-2,-2
1615918500395901,-3,-3,-16,-17,-2,-4,-1,-1
1615918500395901,1,-1,-9,-16,0,5,-1,0
1615918500417881,-1,-1,10,16,1,-5,4,0
1615918500417881,-3,-1,-5,-12,1,-3,-2,-5
1615918500418854,-1,0,-12,0,0,-1,-2,-1
1615918500418854,-1,-1,-16,-11,1,5,2,3
1615918500439797,1,4,42,18,-1,-6,-3,0
1615918500439797,3,0,7,-4,-3,-4,-3,-1
1615918500440794,-3,-6,-31,-16,-3,0,5,0
1615918500440794,-2,-4,3,5,-2,2,2,-1
1615918500462736,0,-2,-7,-8,-1,-9,-10,-3
1615918500462736,0,-2,-17,-17,1,5,2,0
1615918500463760,-2,0,24,21,1,0,1,-2
1615918500463760,2,1,-17,-11,-4,-3,-2,0
1615918500477629,-2,1,2,3,-1,5,3,1
1615918500477629,-3,-3,-12,-5,-1,1,-1,0
1615918500477629,2,0,5,1,-2,0,0,0
1615918500477629,-1,-4,-18,-10,-1,-2,-1,-3
1615918500492588,1,2,-10,31,0,3,-1,1
1615918500492588,-1,-2,-4,-7,4,-3,-2,0
1615918500493585,0,1,-15,-8,2,3,-2,0
1615918500493585,-2,-3,-4,-8,-4,-1,3,-4
1615918500514556,-2,-4,-16,-14,1,4,0,-3
1615918500514556,-1,0,-1,10,-3,-7,-5,0
1615918500515560,-1,-3,3,4,-1,2,4,1
1615918500515560,-2,-3,-4,2,-1,1,-5,-3
1615918500537492,2,2,-2,4,2,1,9,1
1615918500537492,1,4,-6,-6,-3,-1,-2,0
1615918500538492,-1,-1,12,10,-1,3,-2,-1
1615918500538492,-3,-4,-11,-4,-1,-4,4,-3
1615918500551457,-3,-3,-1,-7,-2,-9,-15,-2
1615918500551457,-1,5,28,8,1,2,4,1
1615918500552427,-1,-5,-19,1,-1,-1,-3,-1
1615918500552427,-1,1,20,15,-2,5,-3,0
1615918500574394,3,3,-7,7,1,-1,1,1
1615918500574394,-1,-1,1,-9,-4,-5,-3,-3
1615918500575367,-2,0,7,-7,-1,-4,-3,-4
1615918500575367,0,0,6,6,1,-1,2,2
1615918500597308,-3,-2,0,-6,-2,-1,-14,-4
1615918500597308,0,-3,-25,-3,-1,0,2,-1
1615918500598306,-2,2,28,-5,-2,-2,1,0
1615918500598306,-3,-3,-10,10,-2,-1,1,-1
1615918500611271,-1,-3,9,-26,-5,0,5,-3
1615918500611271,1,2,8,27,0,0,-1,1
1615918500612295,0,0,-1,-23,-7,-5,-5,0
1615918500612295,-4,-6,-4,17,0,-3,-6,-2
1615918500634236,3,4,27,26,2,9,9,1
1615918500634236,-2,-3,-10,-16,-2,7,3,-1
1615918500635207,-1,2,4,12,0,-14,-4,-1
1615918500635207,-1,-1,-3,-17,-2,-2,-8,-4
1615918500657172,-3,-9,-25,-17,-3,5,3,-1
1615918500657172,1,2,16,5,-2,-7,11,0
1615918500658146,-1,-3,-7,4,0,1,-17,-2
1615918500658146,2,1,-19,-21,0,1,1,2
1615918500672132,-3,-2,3,7,0,3,1,-2
1615918500672132,-1,3,29,12,0,-8,-2,-2
1615918500673130,0,2,17,6,0,1,6,-2
1615918500673130,0,2,19,26,0,-1,-1,-1
1615918500694074,0,0,-14,-21,-6,-1,-1,-1
1615918500694074,-2,-6,-31,-17,-4,-1,-2,-2
1615918500696044,-1,-2,0,-7,0,-1,0,0
1615918500696044,0,0,17,15,1,-7,-5,-1
1615918500717985,-2,0,-12,-20,0,-4,9,0
1615918500717985,1,0,4,5,3,3,-7,-1
1615918500717985,-2,-3,-6,18,-1,4,-4,-3
1615918500717985,-1,-3,-19,-38,-5,1,6,0
1615918500730951,-2,1,1,38,4,-1,-2,-1
1615918500730951,0,-3,-11,-20,-3,-6,-4,1
1615918500738930,-1,0,-9,-3,-1,4,8,0
1615918500738930,-3,-1,-5,-10,-2,-4,-14,-4
1615918500762889,1,-1,-10,2,0,-6,3,2
1615918500762889,0,-1,14,-9,-4,7,-1,3
1615918500762889,-1,-4,-3,37,1,-4,2,-1
1615918500762889,0,0,-13,-38,-4,-2,4,-2
1615918500777826,-1,-3,7,17,0,1,-18,-2
1615918500777826,-3,0,6,9,4,0,0,-1
1615918500777826,-1,-6,-9,-41,-3,2,4,0
1615918500777826,2,6,11,21,2,2,5,3
1615918500790792,1,-1,-2,0,-2,-5,-3,-1
1615918500790792,-3,-4,13,17,0,-3,-4,-5
1615918500799791,-3,-1,-10,-8,-5,-6,-2,-2
1615918500799791,-2,0,20,12,-1,-1,-2,0
1615918500814754,-2,-2,-8,-8,2,4,4,-1
1615918500814754,-2,-3,-7,-5,-1,1,-6,-3
1615918500814754,3,3,-12,-17,-2,-1,9,2
1615918500814754,-1,-4,12,17,-1,-4,-15,-5
1615918500837689,-3,2,29,-1,-4,-6,6,-1
1615918500837689,-2,-4,-28,-27,-1,3,-16,-2
1615918500838690,-1,0,9,28,1,-1,3,-1
1615918500838690,-2,-2,-6,-14,0,0,2,-1
1615918500851647,0,-1,-17,-6,0,3,2,0
1615918500851647,-1,2,2,-9,-2,-3,5,-1
1615918500859631,-1,-1,-1,-3,0,-5,-4,-4
1615918500859631,-1,-3,-26,-1,0,2,-6,0
1615918500874566,-1,0,12,1,-2,-2,0,-2
1615918500874566,-1,-1,-10,0,1,1,2,0
1615918500875564,0,-2,18,5,3,1,-3,1
1615918500875564,-3,0,-8,2,-4,-3,4,-3
1615918500897710,-3,-7,-37,-13,-3,-4,-7,-1
1615918500897710,1,6,25,4,3,3,7,1
1615918500898712,-1,-1,-25,-8,0,-1,-4,-2
1615918500898712,1,-4,-4,-18,-2,-2,-4,-2
1615918500920566,0,0,22,8,0,2,3,-1
1615918500920566,-1,-7,-28,0,-3,-12,-1,-2
1615918500920566,0,0,5,-8,-5,1,4,1
1615918500920566,-2,-4,-2,-12,1,-1,-2,-1
1615918500934554,-1,-2,-9,4,0,0,-3,-1
1615918500934554,-1,0,15,14,-1,5,9,0
1615918500935552,-1,0,-7,0,0,-1,-9,-1
1615918500935552,2,-2,2,-6,0,1,2,2
1615918500957057,-1,1,19,1,0,1,-3,-1
1615918500957057,-1,-2,-4,0,0,1,-2,-1
1615918500958056,-4,-2,7,-1,0,-4,0,0
1615918500958056,0,5,4,32,2,7,2,1
1615918500971045,0,-3,-11,-33,-3,-8,-2,0
1615918500971045,-2,-3,-16,21,-4,-2,5,-1
1615918500979001,-1,-4,-5,-10,1,-3,-17,-5
1615918500979001,-2,-3,-6,-22,0,2,3,0
1615918500994958,2,8,45,38,-2,2,5,3
1615918500994958,0,-4,-10,-15,-1,-2,-5,-1
1615918500995955,-2,-5,-8,-16,-4,-2,4,-2
1615918500995955,-3,1,34,39,-3,-2,-4,-2
1615918501017676,-2,-5,-32,-27,-1,-10,-4,-3
1615918501017676,-2,0,7,2,1,0,1,-2
1615918501018702,3,1,9,3,-4,5,-3,0
1615918501018702,2,2,-12,-26,1,3,1,0
1615918501040616,-1,-7,-7,22,2,-8,15,1
1615918501040616,2,4,-5,-7,-2,1,-9,1
1615918501041638,-1,0,-2,-1,0,-1,-10,-2
1615918501041638,-2,-2,-10,6,-1,-6,-2,-2
1615918501054603,0,1,5,2,1,3,-2,1
1615918501054603,0,-2,-17,-9,1,1,7,2
1615918501055577,2,2,7,19,2,6,6,2
1615918501055577,-1,0,17,-4,0,0,-2,0
1615918501077523,-2,-1,-19,-16,1,1,0,-1
1615918501077523,-5,-6,-3,-6,-2,-2,-1,-2
1615918501078515,-4,0,-5,-4,2,-5,-2,-3
1615918501078515,-2,4,23,20,-3,5,0,0
1615918501100481,-3,-4,-28,-2,-1,-2,-2,-1
1615918501100481,0,2,22,-1,0,3,-4,-1
1615918501100481,-1,-3,-15,-6,-2,-4,9,-3
1615918501100481,2,-3,-12,-3,0,-9,-14,-1
1615918501114445,-1,2,23,11,1,6,1,-1
1615918501114445,-1,0,4,4,-1,-2,-3,-1
1615918501115440,-1,-2,6,-2,-4,3,3,1
1615918501115440,-2,-1,1,-15,1,-4,5,-3
1615918501136360,-2,0,8,15,-1,0,1,-3
1615918501136360,1,0,2,-3,-2,-6,-5,-1
1615918501137357,0,1,26,-17,-1,-5,1,1
1615918501137357,1,-1,-17,17,2,4,3,-2
1615918501160297,-2,-5,-19,-25,-5,-2,-2,0
1615918501160297,-1,0,8,1,1,1,4,0
1615918501160297,-3,-1,-6,16,-1,-1,-5,-3
1615918501160297,0,-4,-10,-20,-5,-5,2,2
1615918501174285,-3,2,15,19,0,-1,-2,-1
1615918501174285,-1,-3,-11,-13,1,2,3,-1
1615918501175257,0,-1,-6,2,2,1,-12,-1
1615918501175257,-1,-3,-11,-8,0,-1,1,-1
1615918501197198,0,2,-9,-6,1,1,1,-1
1615918501197198,-3,-2,-9,-23,-4,-8,-6,-4
1615918501197198,-1,2,18,14,1,2,5,-2
1615918501197198,-2,-2,-9,13,-5,1,0,0
1615918501220160,1,1,7,-23,-2,-5,-4,-2
1615918501220160,-2,-2,-10,5,-1,-1,2,1
1615918501221159,0,-4,-8,-14,1,6,1,0
1615918501221159,-2,0,-6,4,-2,-10,-4,-3
1615918501234098,2,4,30,27,-1,-1,6,-1
1615918501234098,1,-1,-5,-4,-1,2,-12,-2
1615918501235098,0,-2,-5,4,-5,-1,0,-2
1615918501235098,-2,-2,-10,-23,-1,3,4,0
1615918501257062,0,-1,-15,5,-2,-2,-1,-1
1615918501257062,1,3,10,3,0,2,-5,2
1615918501258059,-3,-3,-26,3,-2,3,3,1
1615918501258059,-1,-1,10,8,-1,-5,0,-4
1615918501280005,-3,-2,3,-23,-6,-4,-3,-3
1615918501280005,0,3,11,14,1,2,4,0
1615918501280975,-1,0,-8,-9,0,-3,-2,-1
1615918501280975,-3,-3,-7,-19,-2,0,1,0
1615918501293939,-1,-2,5,12,0,-3,-5,-2
1615918501293939,0,1,13,34,-1,-4,-1,-2
1615918501294936,-1,-4,-17,-31,-2,-3,-3,-2
1615918501294936,-1,4,14,7,3,2,0,0
1615918501316878,-1,0,11,-4,-2,-3,-5,0
1615918501316878,-3,-4,-19,-15,-2,5,3,-1
1615918501317876,3,3,30,25,1,-1,11,1
1615918501317876,1,0,-11,5,2,2,-13,-2
1615918501339840,-1,-2,-20,-15,2,0,5,0
1615918501339840,-1,-1,-4,-6,-2,-8,-9,-2
1615918501340838,-2,-3,-10,-4,-1,-3,0,0
1615918501340838,1,-1,20,5,-1,0,4,0
1615918501354807,-2,0,13,25,0,5,-3,-1
1615918501354807,-2,-6,-33,-23,-2,-3,0,-1
1615918501354807,0,2,16,-24,1,0,-2,-1
1615918501354807,1,6,30,59,3,4,2,1
1615918501376827,2,-4,-9,-23,-2,2,-2,1
1615918501376827,-1,-5,-22,-12,-3,-6,-2,-1
1615918501377824,-2,2,30,20,4,-4,1,-1
1615918501377824,-1,-2,-4,-17,-3,2,-9,-3
1615918501399789,-2,0,3,0,2,-1,-2,-2
1615918501399789,-1,1,10,8,0,2,1,-1
1615918501400762,-2,-4,-17,-20,-3,-5,-3,-2
1615918501400762,0,0,-9,18,-2,2,7,2
1615918501414725,-1,-3,-4,-11,-1,-5,-6,-4
1615918501414725,2,6,15,25,3,5,11,-1
1615918501414725,0,-1,-16,-12,0,-3,-6,1
1615918501414725,-3,-6,-22,-6,-4,-10,-2,-2
1615918501436691,-1,-2,-5,-9,-1,3,1,0
1615918501436691,-3,-3,-11,-23,-2,1,-12,-4
1615918501437664,-2,3,24,37,-2,1,0,0
1615918501437664,1,0,-9,-15,0,0,3,-1
1615918501459629,-1,-2,-16,-2,0,-2,-5,-1
1615918501459629,0,-1,5,-7,-3,-2,5,1
1615918501460603,-1,-1,-11,8,1,0,-2,-3
1615918501460603,-4,-3,6,-11,0,-5,-6,-2
1615918501474591,1,2,7,4,-2,-1,2,1
1615918501474591,-2,-2,7,9,-1,0,0,-2
1615918501475586,1,0,-6,-7,-2,0,-3,-1
1615918501475586,-1,-2,-8,-6,0,-1,3,0
1615918501496688,-3,-6,-17,-16,-3,-4,-4,-2
1615918501496688,0,6,20,16,3,0,1,1
1615918501497684,-1,0,9,9,-4,1,-6,-1
1615918501497684,1,5,28,-1,1,3,3,0
1615918501520513,0,-2,4,16,-5,-13,6,1
1615918501520513,-3,-4,-7,-10,-2,-3,-6,-3
1615918501520513,-1,-2,0,-4,-4,2,6,-3
1615918501520513,0,-6,-14,-24,-1,-5,-11,-2
1615918501534503,3,4,-1,4,-3,1,-2,1
1615918501534503,1,5,44,18,1,-5,9,2
1615918501535503,-1,-3,-18,7,-1,4,1,-1
1615918501535503,0,-5,-27,-24,-1,-2,-4,-2
1615918501556419,2,6,1,4,3,0,4,3
1615918501556419,-1,-8,-27,-14,-4,6,1,-3
1615918501557417,-2,0,-3,-5,2,-10,-17,-3
1615918501557417,-2,1,6,-5,-3,2,4,0
1615918501580373,-2,-5,-15,11,-1,-1,-2,-2
1615918501580373,1,2,6,-2,3,2,2,2
1615918501580373,-1,-1,-14,-15,-1,1,11,0
1615918501580373,-3,-1,6,25,-2,-1,-13,-4
1615918501594318,1,-1,4,-16,-1,8,-2,-1
1615918501594318,-4,-4,-20,8,2,-3,0,-2
1615918501595316,0,2,19,14,-3,-1,3,0
1615918501595316,-1,-2,-6,-3,1,-7,0,-1
1615918501617282,-3,1,-7,-14,1,7,-2,-2
1615918501617282,-1,-4,-11,7,-1,-5,-7,-3
1615918501617282,1,-4,-12,-13,0,0,1,-1
1615918501617282,-3,-3,-18,-18,1,3,9,0
1615918501640219,-2,5,41,27,2,0,-14,-2
1615918501640219,0,-2,-37,-9,0,4,5,1
1615918501641193,-3,-1,20,14,-3,-13,-5,-1
1615918501641193,0,-3,-6,-9,0,2,4,-2
1615918501654157,-3,-4,-18,-13,-3,-9,-3,-2
1615918501654157,-2,-3,-3,-7,-5,-1,0,-1
1615918501662163,1,-2,-18,11,2,4,0,1
1615918501662163,0,2,2,2,-2,0,5,1
1615918501677097,-2,-2,-5,-11,-4,2,-4,-1
1615918501677097,1,4,13,-6,0,-7,-4,0
1615918501678094,-4,-5,8,13,-2,-1,-1,-2
1615918501678094,0,-1,21,5,0,-3,4,2
1615918501700218,3,0,-1,22,2,6,9,2
1615918501700218,0,2,4,-4,-1,-4,-14,-2
1615918501701214,-5,-2,7,11,-3,-5,-3,-4
1615918501701214,-1,-2,-22,-18,-2,-3,-1,0
1615918501714155,1,0,19,7,2,3,6,0
1615918501714155,-2,-5,10,1,-3,-2,-1,-3
1615918501722151,2,-1,-12,-22,-3,-3,-3,-1
1615918501722151,-1,-2,-2,-9,-2,2,0,2
1615918501737117,-1,-1,7,-2,3,0,2,0
1615918501737117,1,4,19,39,0,4,2,2
1615918501738133,0,-2,-16,-18,2,-8,2,0
1615918501738133,2,3,23,34,2,-3,-3,-1
1615918501760032,-2,-6,-23,-32,-2,2,-6,-3
1615918501760032,0,-2,-15,-5,0,6,11,2
1615918501761030,-1,0,10,6,-1,-5,-4,-4
1615918501761030,-3,0,-15,-4,-1,-6,-17,-2
1615918501774018,-1,0,10,4,-4,-4,1,0
1615918501774018,-4,-2,-7,-15,-1,0,-8,-5
1615918501781973,2,4,9,27,1,5,9,3
1615918501781973,1,-5,-21,-40,-5,0,3,2
1615918501796933,0,1,10,39,0,2,-5,-3
1615918501796933,-1,-1,-2,-18,-5,-7,3,-1
1615918501797930,-2,-2,-21,-37,-3,-4,-4,-3
1615918501797930,2,8,39,8,0,1,-4,-1
1615918501819871,-4,-4,-11,-8,2,-1,0,-3
1615918501819871,2,-2,-3,-14,-3,4,0,-1
1615918501820869,0,0,-4,2,-1,2,-1,3
1615918501820869,-2,-4,0,13,-1,-7,-7,-6
1615918501833859,-4,-6,-22,-24,-4,-3,6,0
1615918501833859,0,4,19,15,1,-5,-17,0
1615918501841837,-1,-2,-4,-20,1,10,4,-1
1615918501841837,-2,0,28,37,1,1,7,-1
1615918501856797,1,0,-12,-25,-2,-1,-2,-2
1615918501856797,0,0,3,31,1,-1,0,-1
1615918501857771,1,-1,-1,-5,0,1,1,1
1615918501857771,-1,-2,-8,-3,-3,1,1,-1
1615918501879736,-1,0,14,-19,-3,4,-3,1
1615918501879736,-1,0,-15,0,-2,-1,5,-1
1615918501880710,-4,-7,-50,-51,-1,-4,-4,-3
1615918501880710,-1,3,55,61,1,-3,0,0
1615918501893675,-1,-3,-14,-4,-3,-3,-4,0
1615918501893675,-2,-1,7,-19,-1,0,2,-3
1615918501901677,-2,0,-7,10,-1,2,-17,-4
1615918501901677,-1,0,-22,-21,-2,3,2,0
1615918501916638,2,2,10,-2,2,-3,1,-1
1615918501916638,-3,-4,-1,0,-3,-5,-4,-2
1615918501917611,0,1,0,6,-2,-5,5,2
1615918501917611,2,1,9,6,-1,-1,7,1
1615918501939552,-2,-2,-8,4,0,-2,-14,-2
1615918501939552,2,-2,-26,-22,-2,0,4,0
1615918501940549,-2,0,7,10,2,3,-2,0
1615918501940549,-2,-3,-12,-5,3,3,0,0
1615918501953538,0,3,17,7,2,-2,4,1
1615918501953538,-2,1,9,4,-1,1,-3,-2
1615918501961494,-1,-1,4,-2,-5,-12,-1,-2
1615918501961494,1,-5,-28,-26,-3,3,-1,-1
1615918501977451,-1,-5,-7,4,-1,-3,1,-2
1615918501977451,-4,-1,12,9,-1,-4,-3,-2
1615918501984456,1,3,15,19,-2,1,2,1
1615918501984456,-4,-4,-36,-25,-4,-3,-1,-2
1615918502000416,0,4,45,24,0,-1,-3,0
1615918502000416,-3,-2,0,-5,-2,-1,1,1
1615918502000416,-3,1,3,2,-4,1,2,-2
1615918502000416,-3,-4,-24,-16,-5,-8,3,-2
1615918502022356,-2,-3,10,37,2,-1,-14,-2
1615918502022356,4,8,10,-2,2,1,2,3
1615918502023328,0,-6,-17,-33,1,0,0,-1
1615918502023328,0,6,31,30,2,-2,-1,-1
1615918502037318,-1,-1,-17,-20,-1,2,8,-1
1615918502037318,-3,-6,-2,-7,0,-4,-4,-1
1615918502037318,-2,1,11,15,2,0,-1,-1
1615918502037318,2,5,3,-6,3,-1,0,0
1615918502060230,1,0,-12,-11,-5,-5,0,2
1615918502060230,-2,-3,0,0,0,0,-2,-1
1615918502061228,-2,-1,-8,4,2,0,2,0
1615918502061228,-1,-3,-14,-6,-3,1,-2,1
