timestamp,emg1,emg2,emg3,emg4,emg5,emg6,emg7,emg8
1622149106174673,-11,30,-3,-3,-13,-21,-12,9
1622149106174673,-4,-7,-9,-21,21,-17,20,3
1622149106181632,3,-1,9,33,0,11,30,43
1622149106181632,12,-11,0,-7,31,4,-60,-13
1622149106196786,0,7,2,11,16,52,21,-10
1622149106196786,-14,-4,-4,-7,7,-24,20,15
1622149106203767,1,7,11,2,-3,-5,-1,6
1622149106203767,-21,-4,14,20,-12,-10,-6,11
1622149106220799,3,-16,-16,-37,19,-5,-15,0
1622149106220799,2,10,11,40,14,3,-36,-14
1622149106221797,-4,-25,-6,-23,-9,-39,-7,5
1622149106221797,16,55,9,22,33,39,34,7
1622149106234449,-9,-9,-14,-24,-39,-23,-23,-9
1622149106234449,-2,-19,-2,21,39,24,27,-13
1622149106243466,18,26,-4,7,14,21,38,16
1622149106243466,6,11,13,11,-14,-32,-62,-9
1622149106257665,-4,-10,-6,-60,18,28,48,4
1622149106257665,1,5,0,56,2,6,40,25
1622149106271307,7,-19,-4,-9,-14,-7,-64,-13
1622149106271307,-21,-6,-7,29,3,26,34,-43
1622149106280355,17,23,-4,-41,2,-22,-25,15
1622149106280355,-9,-10,-3,-3,17,-21,-34,8
1622149106282349,5,-11,-3,-26,-25,-13,3,-14
1622149106282349,4,-12,0,39,14,15,27,14
1622149106294349,0,41,18,-12,-16,-32,-6,-6
1622149106294349,1,7,-16,-21,-21,10,-21,-16
1622149106303291,-7,-3,11,45,-2,-36,0,2
1622149106303291,-2,6,-17,-72,-23,-9,-26,-7
1622149106317253,-7,-26,-9,44,38,2,-10,-4
1622149106317253,13,7,13,-4,-19,-1,4,11
1622149106324414,-10,17,9,-14,4,14,11,-35
1622149106324414,-1,-21,-10,16,-48,-26,-12,28
1622149106341374,-1,-7,-1,16,20,30,12,-11
1622149106341374,16,6,5,3,-22,-28,-6,-1
1622149106342332,-26,-8,-14,-11,2,20,22,22
1622149106342332,6,-15,-19,-14,27,10,-36,-37
1622149106354326,-8,5,26,33,-34,-12,3,10
1622149106354326,-12,45,17,7,60,-5,-11,-11
1622149106363279,5,3,-18,-55,-93,17,20,3
1622149106363279,16,6,11,81,43,-5,-59,13
1622149106377267,-18,-24,-12,-53,-26,-3,52,26
1622149106377267,15,-7,3,-1,-7,3,-5,-15
1622149106384247,0,-8,3,8,26,8,51,-28
1622149106384247,-11,4,3,20,-40,-7,-68,9
1622149106400277,7,-27,-13,2,23,14,-15,-6
1622149106400277,-17,3,-4,-5,-31,-10,2,7
1622149106402175,-14,-2,-11,-11,16,-2,13,0
1622149106402175,15,-3,14,-6,-1,-14,9,4
1622149106414319,-17,-2,-10,18,4,-1,-38,-16
1622149106414319,0,-25,-5,-53,-41,16,34,17
1622149106422617,0,36,6,42,2,18,-12,-2
1622149106422617,-15,-21,-21,-45,1,-1,14,-11
1622149106437650,-2,16,2,27,-9,-4,-30,-17
1622149106437650,-6,-15,1,-44,6,17,-2,-6
1622149106443635,-6,7,4,24,14,-10,-29,-7
1622149106443635,3,9,-8,-12,-10,-33,-4,-36
1622149106459859,23,-10,5,7,-7,34,78,29
1622149106459859,-22,-9,-2,11,-15,-3,-27,-12
1622149106461856,12,-10,-11,-30,50,-14,20,5
1622149106461856,-4,17,21,12,-50,21,-9,-20
1622149106474326,6,-6,-8,10,26,-13,-18,1
1622149106474326,2,3,-5,-13,-10,12,11,-5
1622149106482878,2,17,3,25,31,13,-39,-7
1622149106482878,5,-4,3,-20,-29,-15,59,50
1622149106496823,-8,-7,2,-16,-2,-14,-23,-23
1622149106496823,10,-11,-13,0,35,7,2,3
1622149106511802,-15,12,14,-10,-33,-20,-3,9
1622149106511802,-8,-11,-13,-15,45,8,6,-16
1622149106519826,4,1,-6,14,5,16,-9,18
1622149106519826,-18,-26,-4,18,-2,-10,-19,-21
1622149106526839,2,4,0,-10,3,-6,19,15
1622149106526839,11,4,7,4,-32,17,21,9
1622149106533818,-8,-10,-11,-38,-40,-36,-4,4
1622149106533818,6,6,1,27,24,44,13,9
1622149106542769,12,0,16,1,-38,-39,8,-4
1622149106542769,-1,7,-14,-55,23,1,-10,8
1622149106556730,-6,-17,-3,37,-5,3,51,0
1622149106556730,2,-5,-6,14,9,18,-10,3
1622149106563711,-6,0,7,-6,-23,-4,4,-17
1622149106563711,-13,-27,8,33,16,-40,-34,34
1622149106579785,16,9,-2,9,-40,-1,-38,-29
1622149106579785,34,41,-1,-22,54,-6,32,24
1622149106594744,-19,-12,-2,-18,1,4,-73,-11
1622149106594744,-2,-13,1,21,-25,33,69,52
1622149106595717,-14,-1,3,-5,-6,5,5,-9
1622149106595717,-1,-9,-7,-5,-14,-27,6,13
1622149106602696,11,21,0,27,55,13,-30,-15
1622149106602696,1,0,1,-24,25,8,32,9
1622149106616865,7,7,12,5,3,-10,-25,0
1622149106616865,-7,-20,-9,-30,-39,-15,-1,-7
1622149106624351,1,1,-4,47,2,33,38,7
1622149106624351,-26,-10,-20,-55,-11,-8,-58,-23
1622149106639837,16,5,7,27,51,13,24,-11
1622149106639837,-23,14,12,3,-29,-25,1,-12
1622149106646794,8,-37,-13,-3,-28,1,-10,-13
1622149106646794,4,10,-6,-14,27,12,20,-1
1622149106653804,-6,-8,-8,-22,-52,-21,-32,-5
1622149106653804,-1,-4,1,8,41,7,10,4
1622149106670729,3,21,10,12,21,-4,4,-6
1622149106670729,1,-28,-1,-3,-19,24,40,-4
1622149106677757,1,23,9,-24,7,-9,12,19
1622149106677757,-19,-20,-12,20,-18,-26,-16,-17
1622149106685782,17,-5,8,8,21,-23,-5,11
1622149106685782,-17,48,4,21,-11,4,-28,-41
1622149106714006,-13,-6,-13,-34,-39,4,15,18
1622149106714006,5,0,0,4,11,10,22,13
1622149106724659,-16,-35,-2,-54,-30,-24,-20,-14
1622149106724659,-4,4,13,29,31,7,-20,18
1622149106725659,10,1,-3,6,27,8,14,-16
1622149106725659,-2,-1,0,10,-68,-28,-99,14
1622149106728760,5,10,-1,9,12,21,90,17
1622149106728760,5,-6,-9,6,1,-6,30,-8
1622149106737660,-14,-8,-11,-49,24,1,-25,1
1622149106737660,7,-21,-2,39,29,7,-28,-9
1622149106743647,9,37,-3,-14,-30,18,27,14
1622149106743647,-1,-16,-3,-13,-42,-61,-58,-16
1622149106759774,24,19,8,6,22,30,47,1
1622149106759774,1,11,0,10,-21,9,42,17
1622149106766917,-41,-24,-16,6,7,1,11,17
1622149106766917,29,6,8,39,35,1,-18,-15
1622149106783229,-20,-6,-2,-40,2,-18,-28,-5
1622149106783229,24,-3,13,-2,12,23,8,9
1622149106784819,-3,-44,-19,-1,-16,13,3,8
1622149106784819,3,72,5,1,26,3,-18,-14
1622149106796781,1,-29,2,8,-28,-16,3,7
1622149106796781,-3,5,-1,-6,-4,19,39,-8
1622149106804414,15,8,6,-22,4,-26,-40,3
1622149106804414,3,-6,0,21,-20,30,-34,5
1622149106819848,10,-11,-12,-18,-10,9,57,-22
1622149106819848,-26,11,13,25,18,11,4,-10
1622149106826964,-11,3,-4,-11,20,-14,-80,-6
1622149106826964,7,-29,-11,0,13,14,76,-10
1622149106842463,-4,-2,-9,0,15,-12,-21,16
1622149106842463,-2,21,3,-31,-37,-34,-18,-2
1622149106844359,11,12,-8,1,32,10,-16,-8
1622149106844359,-17,2,-3,20,-10,4,-35,-32
1622149106857692,-4,-23,16,19,-1,-4,-2,38
1622149106857692,-10,-21,-7,-14,8,18,-19,-55
1622149106864327,-7,33,15,34,-16,7,43,7
1622149106864327,-2,-17,-8,-36,-8,3,-71,-4
1622149106879330,-9,-4,2,13,52,14,26,-12
1622149106879330,8,19,1,2,-7,-25,20,10
1622149106886960,0,-21,-6,-5,-2,-4,-26,-20
1622149106886960,22,-12,2,6,0,9,24,31
1622149106910785,-33,4,-1,4,22,-3,-20,-2
1622149106910785,17,-15,-8,12,2,13,6,-9
1622149106911727,7,26,3,-33,-44,13,78,6
1622149106911727,-18,3,1,7,19,-28,-28,-2
1622149106917670,22,-2,-17,4,-16,-10,-50,-23
1622149106917670,-23,-12,15,12,46,4,8,-19
1622149106924434,0,-11,0,8,-4,-24,-13,10
1622149106924434,5,25,9,-23,-13,-15,34,-19
1622149106947391,5,8,-12,-7,-68,-14,0,-7
1622149106947391,-1,11,3,4,-16,11,-37,9
1622149106949360,-5,-36,-16,-43,5,0,54,-9
1622149106949360,5,21,7,31,10,-3,14,-3
1622149106962435,6,-1,7,25,34,33,20,-1
1622149106962435,-1,-1,4,-10,-21,-18,39,11
1622149106964429,-4,-12,-8,0,1,-21,-66,9
1622149106964429,-13,-30,-7,-22,-13,-15,66,2
1622149107001205,4,20,7,4,15,13,1,3
1622149107001205,14,-7,-17,-27,14,-2,-12,1
1622149107015803,-2,0,14,22,-29,14,30,12
1622149107015803,-19,-15,2,20,14,8,-14,28
1622149107017269,4,17,-10,-5,14,17,-15,-7
1622149107017269,3,2,4,7,4,-4,1,4
1622149107018888,14,0,-3,3,6,0,9,-13
1622149107018888,-13,-25,4,-43,-34,1,-48,2
1622149107029904,2,9,3,19,-29,-19,13,2
1622149107029904,-3,14,4,5,35,19,43,12
1622149107031899,5,-1,-5,-44,-40,-24,-57,-7
1622149107031899,14,-22,-5,39,34,18,45,19
1622149107037908,-15,3,-3,-18,-12,-20,7,35
1622149107037908,10,10,21,-18,-19,-3,-42,-14
1622149107045808,-10,-3,12,60,3,15,7,-8
1622149107045808,18,3,-18,-26,10,-16,7,-8
1622149107059871,-7,-13,1,38,-25,-18,-7,24
1622149107059871,-10,36,-5,-27,24,35,40,-17
1622149107066861,-7,8,-1,24,0,-7,-15,8
1622149107066861,-6,-11,-10,-27,14,2,-6,6
1622149107082446,7,-18,7,19,-36,-23,-31,12
1622149107082446,-5,-4,-10,1,10,4,13,8
1622149107085441,-2,0,-10,-22,2,-13,-64,-28
1622149107085441,-3,0,2,33,-5,12,68,14
1622149107105821,-4,23,8,-25,1,-12,-71,-34
1622149107105821,-7,-14,-11,-11,-64,-14,16,13
1622149107106820,6,-3,-3,10,16,2,-14,3
1622149107106820,-8,15,13,28,16,-8,-5,-2
1622149107128316,-2,-13,-5,-50,-6,6,8,-19
1622149107128316,5,-7,13,69,60,-25,-10,-5
1622149107129316,-9,11,-9,-39,-18,20,48,9
1622149107129316,-8,-12,3,34,-8,-13,-25,-14
1622149107150368,7,-12,-15,-29,39,-3,18,-10
1622149107150368,-6,-7,-13,-44,-53,-4,-18,15
1622149107152363,9,-23,15,69,28,-1,14,-8
1622149107152363,-11,18,-14,-66,12,24,13,1
1622149107157324,1,-4,7,9,-19,-5,-8,14
1622149107157324,1,4,-8,8,-15,-29,-3,4
1622149107164305,-12,-21,-10,-1,-18,16,-11,-16
1622149107164305,18,5,12,1,-19,2,30,1
1622149107188259,-5,13,-12,-9,15,-7,14,-2
1622149107188259,6,15,0,9,34,2,2,-4
1622149107190236,1,-8,13,-5,-6,-2,0,2
1622149107190236,9,-3,-11,-32,-52,13,-19,-3
1622149107203227,-31,-11,10,56,-1,-2,-3,-1
1622149107203227,-4,-11,-16,-37,2,-15,-14,-14
1622149107204198,-4,23,18,27,0,13,-14,-5
1622149107204198,6,-38,-3,30,23,20,30,1
1622149107216193,32,35,-13,-66,-29,-56,-53,0
1622149107216193,-15,-3,-3,4,-22,17,42,9
1622149107225170,-4,-4,3,-2,-8,-4,-10,-3
1622149107225170,7,6,4,19,6,-2,-9,-2
1622149107239138,-3,-8,5,-12,2,-4,-6,-10
1622149107239138,-3,-27,-10,37,35,10,-24,-25
1622149107246110,28,20,8,-52,21,16,64,40
1622149107246110,-27,10,14,17,-41,-23,-58,-23
1622149107269049,0,-30,-3,28,44,20,-37,-12
1622149107269049,10,14,-8,-33,6,14,58,5
1622149107287998,12,-7,-15,-5,-6,-17,13,-32
1622149107287998,-11,-16,10,-12,18,-7,-41,5
1622149107288996,-5,9,7,19,-32,22,-20,-26
1622149107288996,-8,-37,-19,-27,3,-13,-43,-15
1622149107290990,13,3,-6,11,2,-5,-9,16
1622149107290990,-8,21,-1,-17,-3,-13,26,-8
1622149107307972,-8,-6,1,-14,-7,-8,-7,9
1622149107307972,-4,-8,12,10,-48,14,11,3
1622149107308967,-8,10,-7,-26,30,9,-43,-2
1622149107308967,8,3,-5,16,-39,26,-9,-20
1622149107322928,18,-9,6,-14,16,-16,25,-13
1622149107322928,-24,9,7,30,23,-13,16,28
1622149107323926,-13,-10,-9,-33,-65,-12,-37,-12
1622149107323926,7,-6,2,5,11,19,14,9
1622149107336895,-6,17,-3,15,13,19,60,7
1622149107336895,14,-1,9,-10,-4,3,-41,15
1622149107345844,5,8,-4,11,-4,-57,-45,-15
1622149107345844,-13,-3,-3,-8,33,-20,-2,14
1622149107359800,-4,16,-9,-5,-23,37,4,-10
1622149107359800,2,-18,-6,29,-26,-46,-12,30
1622149107366224,0,5,1,31,24,41,48,15
1622149107366224,14,0,-11,-13,5,-5,-46,-3
1622149107383185,-11,-5,5,-2,6,-7,-2,-29
1622149107383185,8,-5,-3,-12,-2,18,-3,1
1622149107384182,-6,18,1,-4,-40,-10,-1,-23
1622149107384182,4,2,-9,-33,37,-13,14,8
1622149107396150,-3,-18,-6,37,-27,-1,-5,18
1622149107396150,15,7,27,-11,13,20,-16,-12
1622149107405126,-13,-5,-16,-4,41,-3,-37,0
1622149107405126,0,21,4,15,-52,0,88,-4
1622149107428064,-7,-16,-5,22,15,-22,-25,-7
1622149107428064,2,-5,-9,-40,9,5,4,-10
1622149107429063,-3,1,20,33,-11,-5,11,10
1622149107429063,-3,-1,-13,-62,2,0,-13,-10
1622149107443024,4,0,7,-1,-2,-8,14,6
1622149107443024,1,8,-7,27,-9,-2,-13,1
1622149107444049,2,-19,2,-22,29,20,0,10
1622149107444049,0,15,16,46,17,-8,1,10
1622149107465492,-11,-14,6,-16,-19,-25,-62,-10
1622149107465492,10,21,-6,-14,-3,1,75,-1
1622149107467364,6,2,-13,-8,14,2,20,19
1622149107467364,-7,7,-5,-4,-7,5,-9,0
1622149107479555,-10,-6,6,30,24,-1,-2,21
1622149107479555,-1,-11,1,-24,-44,33,4,-1
1622149107486965,-11,7,-9,-8,4,-42,-8,-20
1622149107486965,12,-14,2,8,1,-12,34,19
1622149107501952,-3,4,-14,-26,38,13,-26,-5
1622149107501952,-9,-9,-6,13,6,-29,15,1
1622149107508912,4,27,0,6,-12,16,6,5
1622149107508912,1,-11,8,16,19,11,-61,-15
1622149107516866,3,1,-13,-42,-22,-26,66,-4
1622149107516866,-7,1,15,23,-5,-5,-87,-8
1622149107525891,-12,-1,-10,-23,-8,25,112,-5
1622149107525891,11,0,-14,-9,5,-16,-86,6
1622149107555805,1,-11,4,-9,-5,13,-25,6
1622149107555805,-12,13,5,14,-1,35,32,-4
1622149107556762,2,-19,-3,7,41,-8,-87,-13
1622149107556762,-2,6,9,37,2,-27,72,3
1622149107561784,9,7,6,-13,1,5,8,3
1622149107561784,6,3,-13,-34,-54,-39,-11,-8
1622149107568729,-6,-40,-7,-26,-3,53,13,-34
1622149107568729,-9,48,-2,-17,3,-4,-39,-33
1622149107585728,7,16,6,12,-32,35,64,47
1622149107585728,-1,-4,5,17,33,-19,-14,3
1622149107586725,1,-6,21,45,-1,-7,35,18
1622149107586725,-8,-30,-16,-36,-32,-4,-18,-19
1622149107599823,0,8,10,50,48,12,40,-4
1622149107599823,-8,1,-35,-68,-16,4,-87,-10
1622149107606858,0,7,5,1,-40,11,-3,10
1622149107606858,-1,1,4,22,6,-24,6,22
1622149107621978,5,-12,-2,-14,15,-17,2,-12
1622149107621978,-7,-18,5,22,34,43,11,4
1622149107628454,2,14,-3,-11,28,-12,-66,3
1622149107628454,-9,-16,-2,1,-54,-67,10,9
1622149107636943,6,-2,-2,13,-14,20,-12,-26
1622149107636943,-11,-10,7,-21,26,-5,-5,-10
1622149107645458,-1,12,-2,-11,-22,-20,10,18
1622149107645458,13,-3,-9,-14,-55,41,9,1
1622149107659869,-25,-15,-4,-9,2,-6,-28,-5
1622149107659869,16,17,10,14,3,-4,44,2
1622149107666955,-3,-10,-14,14,3,-10,-12,-11
1622149107666955,-2,-10,4,22,42,-7,-26,10
1622149107681329,10,-27,-23,-17,-60,1,71,-5
1622149107681329,-25,29,0,21,19,32,15,-33
1622149107689339,0,1,-7,-20,3,-21,-73,7
1622149107689339,-1,-4,0,-34,-20,18,45,4
1622149107705841,4,-5,8,37,19,-26,-26,15
1622149107705841,7,3,-2,-19,7,-7,-16,-19
1622149107706841,-14,-37,-12,-12,3,36,69,4
1622149107706841,2,9,6,-15,9,-12,-101,-15
1622149107720899,4,14,12,21,25,11,35,14
1622149107720899,10,-21,5,29,-5,12,15,1
1622149107726985,1,25,4,-9,16,0,19,8
1622149107726985,-1,-17,-25,-7,-7,0,-19,-5
1622149107743006,5,2,10,11,23,-3,-16,-2
1622149107743006,-6,13,-17,-5,-3,-8,34,16
1622149107748991,-3,-20,-12,-19,-45,-18,16,-12
1622149107748991,19,15,16,22,-6,-46,-45,4
1622149107764971,-24,-2,-2,-35,8,52,-6,-10
1622149107764971,1,-7,-11,-15,-15,22,10,12
1622149107764971,3,14,53,75,23,-32,16,1
1622149107764971,-5,-1,-12,10,33,9,24,9
1622149107780993,-3,-21,3,18,-24,3,-44,-28
1622149107780993,1,29,-3,-32,-15,-28,36,21
1622149107786984,12,6,14,-16,0,-2,-42,-41
1622149107786984,-17,6,7,27,33,13,-12,18
1622149107802728,7,-22,-16,-32,13,4,45,0
1622149107802728,2,29,4,22,-21,0,-10,29
1622149107808948,6,-7,-12,-13,-7,3,-9,-8
1622149107808948,-11,-15,3,-3,25,23,71,0
1622149107833829,-1,30,-4,-13,-11,-24,-58,-5
1622149107833829,2,-11,19,25,1,-54,-57,-7
1622149107834794,-11,-14,-2,1,-11,27,51,16
1622149107834794,-4,-13,-21,-43,2,-9,-25,-22
1622149107840779,-6,-5,-7,-1,-17,23,0,20
1622149107840779,8,-10,12,11,-3,-10,19,-53
1622149107846795,-9,-8,-12,-1,35,6,-12,-3
1622149107846795,-4,32,0,36,14,30,19,-42
1622149107861720,9,-15,3,-9,4,-39,-9,10
1622149107861720,-12,-20,-20,-23,20,-4,-77,15
1622149107868733,3,-17,-12,16,-9,-5,10,-27
1622149107868733,1,1,17,-12,-79,14,24,-6
1622149107885091,-3,14,-10,-40,-12,-29,2,28
1622149107885091,2,-14,-4,16,44,6,41,1
1622149107885780,7,-3,-3,1,-15,7,-36,14
1622149107885780,-3,-34,3,9,3,-27,19,16
1622149107900745,7,21,-2,-17,-10,-23,-40,-48
1622149107900745,-4,18,-8,0,8,16,-56,21
1622149107906758,1,-2,-11,-13,15,4,68,19
1622149107906758,6,3,7,-6,-11,-5,35,-13
1622149107921982,2,-19,-6,21,39,3,-18,-2
1622149107921982,-11,-9,8,-20,-54,10,30,-52
1622149107928853,-5,16,-8,20,24,-47,-66,-9
1622149107928853,23,-7,5,-9,16,11,-16,6
1622149107944995,-22,4,2,6,-27,1,71,11
1622149107944995,7,-2,3,37,32,3,-17,15
1622149107944995,2,1,7,-21,-10,-11,40,13
1622149107944995,-1,-42,-22,-32,-38,-18,-14,42
1622149107960968,2,37,14,29,-4,23,-6,4
1622149107960968,-2,-31,-15,-50,-26,-18,13,1
1622149107983078,-13,9,12,63,28,-9,13,14
1622149107983078,0,-6,-15,-24,12,20,-19,-1
1622149107984984,-3,-4,-15,-21,9,-8,18,-25
1622149107984984,2,6,22,12,-60,4,-16,14
1622149107988973,-1,-25,-10,-26,-25,-9,-5,-4
1622149107988973,-14,32,6,-10,12,5,12,-6
1622149108005143,4,-3,-10,45,15,26,5,-1
1622149108005143,3,9,7,-23,-9,-26,-47,6
1622149108005948,7,20,7,-20,-25,18,10,-12
1622149108005948,-2,-12,0,38,23,20,33,12
1622149108020803,12,22,-5,-51,16,0,-52,16
1622149108020803,-6,-7,6,24,-24,-22,53,-35
1622149108026901,-3,4,-9,21,12,39,-13,3
1622149108026901,-1,0,19,20,28,-24,14,-24
1622149108041885,-1,-14,-5,-4,14,-3,-15,18
1622149108041885,-10,-5,-11,-24,-31,-13,-51,2
1622149108057830,2,8,0,-30,-24,22,63,-1
1622149108057830,-11,4,2,4,17,17,26,-6
1622149108065802,-2,-3,2,7,20,-22,-43,-14
1622149108065802,20,8,2,3,0,-5,-19,10
1622149108066802,-10,-12,-14,21,-9,-17,-24,7
1622149108066802,-4,-3,20,7,-1,-4,-40,-1
1622149108080763,4,-2,-3,-8,-34,10,98,2
1622149108080763,0,-24,-9,-9,31,-47,-24,0
1622149108110896,-9,23,11,-25,-22,-5,-13,-25
1622149108110896,19,-9,-21,-9,-15,-1,-30,45
1622149108112889,-16,-10,-9,-29,7,16,26,-47
1622149108112889,0,14,2,45,-29,33,19,7
1622149108113862,-5,-38,7,-17,41,-4,17,8
1622149108113862,-3,32,-2,-3,-34,-7,-46,-13
1622149108125056,3,3,24,18,-3,-18,17,23
1622149108125056,-4,-15,-14,0,51,41,1,6
1622149108125897,12,11,3,0,-33,1,-17,-15
1622149108125897,-22,-9,2,-10,18,-2,14,30
1622149108140183,-3,-15,-14,-12,-4,19,-54,-50
1622149108140183,13,29,0,30,23,1,44,19
1622149108146141,0,4,-4,11,12,-16,12,12
1622149108146141,2,1,-13,-9,-13,45,-59,10
1622149108161124,-1,5,30,15,10,-28,-2,17
1622149108161124,11,-36,-4,-38,-18,10,42,6
1622149108177661,0,41,-5,-8,-19,-20,-52,7
1622149108177661,-7,-6,-18,-27,-7,-8,-17,-8
1622149108192570,-9,-16,-10,23,-18,-16,-50,-4
1622149108192570,8,0,22,28,29,7,-11,-14
1622149108192570,-4,-3,4,-23,0,6,4,-5
1622149108192570,1,-1,4,37,-10,-26,13,-10
1622149108200551,0,13,-3,-17,-33,-3,-43,-13
1622149108200551,-7,-16,-21,-34,-8,-16,20,23
1622149108206975,1,-2,10,29,64,41,20,9
1622149108206975,-6,-4,8,-10,-54,-19,28,-15
1622149108230921,7,9,2,16,10,13,-9,8
1622149108230921,3,-8,-13,8,23,-3,28,19
1622149108231894,-23,-27,-23,-11,-6,-20,-111,-13
1622149108231894,27,16,13,1,48,29,80,9
1622149108245029,-2,18,6,-4,-15,-1,-32,28
1622149108245029,5,17,14,18,6,23,11,-11
1622149108245821,0,-10,-9,-12,-22,-12,7,-5
1622149108245821,-6,-18,-4,17,32,9,12,-12
1622149108260923,-3,7,-6,-22,-10,-47,-23,1
1622149108260923,-11,-2,-9,9,-6,0,-20,-12
1622149108266949,7,-15,-3,22,0,2,11,29
1622149108266949,-14,7,-2,-7,-3,-17,-9,-35
1622149108282752,8,-3,6,25,-55,37,19,18
1622149108282752,-11,2,-17,-41,22,-3,-5,-23
1622149108288767,1,-17,-1,-3,-68,-23,7,3
1622149108288767,-4,-4,-10,-8,-7,-10,-30,-4
1622149108305104,5,1,-3,-21,22,7,23,-4
1622149108305104,-13,-7,2,37,33,2,-25,-4
1622149108305104,-5,-10,1,17,-7,5,16,-15
1622149108305104,19,43,3,-4,-2,17,-17,-5
1622149108320992,0,9,-6,13,23,-30,-10,-8
1622149108320992,22,10,2,-6,-15,-2,-4,15
1622149108326976,-26,0,2,21,24,-9,12,8
1622149108326976,-3,-21,-8,-27,4,3,-8,-23
1622149108343419,-13,-11,-11,-3,17,19,17,27
1622149108343419,-1,-13,7,9,-13,8,-32,-15
1622149108349417,16,23,-3,-23,-5,-27,8,0
1622149108349417,-3,9,18,34,21,6,2,-1
1622149108380844,2,-60,-15,-8,-3,-21,22,0
1622149108380844,6,50,-9,-31,-19,18,-3,3
1622149108380844,3,1,16,9,19,3,-75,-5
1622149108380844,-21,18,-4,-17,-33,26,17,21
1622149108386854,4,-8,-3,19,-17,-38,9,-8
1622149108386854,-10,-15,-1,28,26,-2,-26,-16
1622149108387828,2,5,4,-52,-8,-13,24,5
1622149108387828,13,-14,-10,-5,7,36,9,5
1622149108403511,4,-2,11,12,-1,7,-19,-4
1622149108403511,6,16,1,11,-36,-2,28,2
1622149108409488,-29,-2,-29,-36,37,10,8,-37
1622149108409488,6,-29,-5,-21,-24,-57,-78,-8
1622149108424529,-1,14,0,24,29,30,29,20
1622149108424529,8,3,17,-4,-19,7,60,17
1622149108431989,12,13,1,29,16,18,-35,4
1622149108431989,-15,-33,-2,1,8,-9,-14,1
1622149108455106,0,12,-6,-34,-33,-9,37,-14
1622149108455106,-1,3,-2,-7,7,0,-40,5
1622149108455783,8,-5,1,-10,-35,-1,37,6
1622149108455783,-13,3,2,48,29,-8,-9,-3
1622149108471010,-8,7,1,-12,-15,29,45,-7
1622149108471010,-9,-14,-11,-34,8,3,-33,-10
1622149108472009,7,-3,10,-2,-21,-24,53,-2
1622149108472009,15,4,-4,24,-12,-8,49,21
1622149108492597,-23,-22,6,-18,-3,-6,-75,-16
1622149108492597,-3,22,-4,-39,3,-19,-2,-14
1622149108492597,11,-7,-18,20,12,56,25,24
1622149108492597,1,-7,2,12,16,-30,12,12
1622149108507653,-1,23,-5,-1,6,14,20,-6
1622149108507653,-7,-18,2,-7,-18,-12,-16,17
1622149108507653,3,-2,2,23,22,8,-40,0
1622149108507653,-1,1,-5,-76,-14,8,37,-23
1622149108538381,3,7,10,31,22,-10,-26,7
1622149108538381,11,-15,-5,16,-54,20,-38,-15
1622149108538381,-9,-3,-3,-10,11,17,63,31
1622149108538381,-9,16,5,-22,-16,-13,19,-8
1622149108544392,-1,-5,-4,23,13,-11,-38,-7
1622149108544392,-6,-15,-1,-10,15,-5,35,-18
1622149108551373,10,9,5,7,14,-9,-44,7
1622149108551373,7,10,-5,20,-30,-7,22,-3
1622149108567587,-6,3,-5,-38,-3,4,-32,3
1622149108567587,2,-3,0,45,22,-9,113,8
1622149108567587,-4,-15,15,27,-21,-3,-37,-23
1622149108567587,-9,-6,-16,-44,2,29,-9,16
1622149108582664,1,7,-3,18,3,-3,30,4
1622149108582664,-6,-10,-12,-1,-1,-23,-36,-2
1622149108588655,-7,3,-8,-13,14,0,-18,-21
1622149108588655,-5,-24,10,23,-56,-7,9,4
1622149108603650,27,25,10,9,5,17,25,8
1622149108603650,-16,-14,-2,-19,38,-5,-32,28
1622149108611591,-20,-9,3,45,-3,-10,4,6
1622149108611591,12,24,-26,-62,3,-10,-35,-18
1622149108627622,-9,-13,1,-9,-24,-28,-28,-10
1622149108627622,6,7,15,21,6,0,0,7
1622149108627622,2,0,-4,-15,-22,-8,45,-3
1622149108627622,1,-14,7,4,56,8,-76,-10
1622149108643840,-2,8,-8,24,-9,-1,7,-20
1622149108643840,-14,-6,6,-16,-33,14,-14,-9
1622149108648832,2,-8,-28,-50,21,-23,-18,2
1622149108648832,-7,-1,14,56,-2,-8,53,3
1622149108665759,1,2,-1,-23,25,10,-84,6
1622149108665759,-5,2,-5,-32,4,-2,99,-24
1622149108672028,4,-11,2,43,0,4,-2,-16
1622149108672028,8,32,13,-23,-49,-14,-40,3
1622149108694811,-3,-10,-8,-6,10,-4,31,-11
1622149108694811,-14,-9,6,7,44,-33,-98,-7
1622149108695789,2,27,-8,-21,-36,38,64,6
1622149108695789,14,-1,12,33,12,14,25,4
1622149108702795,-13,-19,-4,3,-26,-16,15,5
1622149108702795,-7,45,-3,2,-3,12,-32,24
1622149108708789,11,-8,2,-21,30,14,9,-14
1622149108708789,-5,-13,-2,17,-14,0,-15,-7
1622149108731789,5,-1,14,11,-6,15,8,-2
1622149108731789,11,10,8,-15,-17,-25,18,-4
1622149108732776,-6,-8,1,-14,4,-9,-31,-1
1622149108732776,2,0,-8,12,38,4,0,12
1622149108746744,-2,4,-15,-37,-53,10,80,22
1622149108746744,8,-20,-6,20,38,-11,-22,-18
1622149108747728,11,-13,8,7,-18,-31,-11,-9
1622149108747728,-18,24,-10,-17,37,10,-14,4
1622149108762860,-5,-19,5,5,12,-3,-6,-11
1622149108762860,12,19,-18,1,-11,8,-47,15
1622149108768976,1,15,15,-20,-25,7,29,-8
1622149108768976,3,-35,-6,14,37,-20,32,17
1622149108784551,-4,-17,-1,16,13,13,-32,11
1622149108784551,-2,30,-3,-20,-44,-9,-14,-48
1622149108791632,2,0,-5,-1,45,28,-8,-1
1622149108791632,-4,11,-4,0,-26,-54,-39,34
1622149108807712,-8,-21,-20,-28,-22,-6,-42,-11
1622149108807712,8,-7,38,39,1,18,40,17
1622149108807712,-21,6,-12,-34,-4,8,-16,2
1622149108807712,10,8,5,3,-60,-2,4,-23
1622149108822757,-4,-3,-2,40,39,10,-19,5
1622149108822757,-8,-13,1,-9,9,0,25,22
1622149108828743,17,4,-13,-9,47,-5,-40,-14
1622149108828743,-9,-5,16,-1,-46,47,30,-9
1622149108844060,6,-11,3,10,14,-29,14,8
1622149108844060,3,21,-5,30,8,15,42,-1
1622149108852014,-4,-7,14,18,0,-14,-27,0
1622149108852014,0,-26,-32,-45,-22,-26,5,-12
1622149108867672,-5,20,10,25,22,18,-13,-9
1622149108867672,-4,-34,-14,-34,1,-22,3,-12
1622149108867672,0,22,29,-1,-22,-9,4,13
1622149108867672,-3,6,8,48,47,20,-4,-17
1622149108882722,4,1,-4,-64,-68,-19,-2,13
1622149108882722,-8,-16,-21,12,15,-14,-81,-4
1622149108888738,0,-8,18,17,1,6,63,-9
1622149108888738,-5,0,-4,-32,18,-14,8,-7
1622149108905189,1,-5,-1,5,2,1,-7,4
1622149108905189,-2,1,4,5,-33,15,-16,1
1622149108911403,12,-11,-19,-3,3,-5,15,9
1622149108911403,-17,-6,6,36,12,-3,-24,-14
1622149108944818,-2,5,3,-25,-10,25,63,5
1622149108944818,24,3,3,-24,-4,-16,26,55
1622149108945816,-16,-3,-6,45,-9,-29,-16,-25
1622149108945816,-14,-5,4,-46,36,28,-16,5
1622149108949805,2,8,-6,-2,16,5,32,6
1622149108949805,-8,-9,13,41,-16,28,22,-8
1622149108950802,7,-21,-14,-19,-16,-11,-60,34
1622149108950802,5,6,4,19,-19,-19,30,4
1622149108972630,6,23,-3,-33,20,12,-10,6
1622149108972630,2,-19,-8,28,-9,-26,-34,-14
1622149108972630,-8,11,7,-25,-30,15,7,14
1622149108972630,13,12,-8,-4,13,22,46,5
1622149108987583,3,-15,-10,-16,-7,-15,-46,-21
1622149108987583,-1,2,17,45,10,-10,11,0
1622149108987583,-12,-4,-26,-38,2,4,-12,-4
1622149108987583,4,-10,10,50,-19,7,22,-9
1622149109011584,0,-6,-14,-56,17,-28,1,1
1622149109011584,-15,8,-1,-12,-22,15,4,5
1622149109011584,-4,-14,-4,-1,23,-28,11,-5
1622149109011584,7,22,-3,-15,-14,23,-43,-3
1622149109024539,6,-24,6,43,1,-2,-31,-20
1622149109024539,-14,4,-9,-35,7,7,-64,-25
1622149109031996,12,-6,6,22,-11,-4,35,31
1622149109031996,21,21,2,-11,25,-1,12,26
1622149109048565,-3,8,10,27,-30,-8,14,-24
1622149109048565,-11,-35,-16,-32,-18,-10,-40,18
1622149109049563,5,14,-4,-6,4,-4,42,-4
1622149109049563,-11,19,10,-3,-25,-10,-12,0
1622149109063407,3,1,14,26,38,-3,-6,3
1622149109063407,2,13,-14,-8,-19,29,80,-12
1622149109069479,-2,-10,2,13,12,-47,-77,-14
1622149109069479,-5,-7,-28,-25,-1,49,39,0
1622149109093757,-10,-9,0,9,-19,-11,-32,13
1622149109093757,1,24,15,-22,-49,2,43,23
1622149109094756,-1,15,5,34,26,-9,-53,-28
1622149109094756,-8,-20,1,-36,-4,-14,-74,-14
1622149109106842,12,19,-6,1,28,2,121,-25
1622149109106842,3,-41,5,11,0,12,3,31
1622149109107843,-11,35,5,22,-16,38,31,4
1622149109107843,6,-11,-2,-10,-8,-26,-29,-5
1622149109130698,-4,-9,11,35,10,-10,-35,-25
1622149109130698,-1,3,-14,-25,-32,-8,32,20
1622149109131698,-1,15,4,-12,-11,13,-7,-8
1622149109131698,-6,-13,-11,21,28,9,6,7
1622149109143902,-7,-12,6,-1,-14,-30,16,17
1622149109143902,38,18,6,8,35,4,27,-27
1622149109151815,-30,-10,-3,-4,-21,1,-67,-12
1622149109151815,8,3,0,15,15,-10,5,21
1622149109167422,-7,1,4,-28,9,-26,-36,-7
1622149109167422,0,-8,-7,19,49,-9,18,1
1622149109168427,5,-28,-10,-7,-10,-9,15,19
1622149109168427,-6,25,-1,-32,5,-39,-3,-10
1622149109182698,6,-2,-2,25,-65,51,-7,-19
1622149109182698,-13,-13,-8,-37,43,-18,-57,-39
1622149109188707,18,-5,5,-11,5,-14,77,2
1622149109188707,-13,-23,-8,14,34,31,-25,-13
1622149109213614,6,25,-9,14,-15,-31,-8,45
1622149109213614,-9,1,12,-16,4,18,19,-1
1622149109214614,0,-2,-5,-1,-18,-2,-36,-13
1622149109214614,5,-22,-17,-1,12,2,52,-6
1622149109227686,-5,10,2,21,5,-16,-67,6
1622149109227686,-11,-12,-24,-21,-10,0,11,-14
1622149109227686,5,4,4,-22,-10,17,-21,4
1622149109227686,-2,2,0,-1,-25,4,41,-9
1622149109251664,-8,7,-11,-11,10,-5,10,52
1622149109251664,19,-11,-9,35,13,-9,-50,-15
1622149109251664,-7,13,12,-36,34,19,42,2
1622149109251664,-10,-21,11,54,12,-28,-33,9
1622149109263604,-4,22,-17,-41,-10,44,-1,-19
1622149109263604,3,-12,-14,-4,24,41,-18,-5
1622149109272010,4,2,13,13,-61,-2,7,10
1622149109272010,-1,-4,-5,-24,-3,11,-12,-28
1622149109287736,3,-23,4,14,-22,-21,-8,-2
1622149109287736,-15,23,10,-18,-48,-17,-8,-22
1622149109287736,-8,-28,-27,-43,7,17,-40,0
1622149109287736,1,19,28,48,15,15,9,7
1622149109302708,4,-4,-5,-15,24,39,46,-1
1622149109302708,7,11,16,28,6,-51,6,-6
1622149109325828,0,-14,-1,-1,-25,-23,-30,-6
1622149109325828,-1,-38,-14,8,16,-16,-14,22
1622149109326837,4,38,4,-52,-33,40,12,4
1622149109326837,6,3,5,23,55,-13,32,21
1622149109339886,4,10,26,41,-6,4,-4,24
1622149109339886,-1,-6,-11,-37,-42,4,-17,-7
1622149109346836,-5,-14,-10,34,55,3,20,-11
1622149109346836,-4,-9,-5,6,-16,9,-41,-3
1622149109347834,-11,30,-11,-9,-35,-18,21,-18
1622149109347834,2,-7,5,-27,-13,10,-2,-2
1622149109362795,0,-7,12,18,-5,10,57,12
1622149109362795,-11,-4,-13,8,31,-16,-40,-19
1622149109368807,-5,-8,-11,-24,59,2,114,3
1622149109368807,4,5,20,20,-38,-4,-16,-13
1622149109383765,-2,-29,10,26,19,2,27,21
1622149109383765,5,32,-1,-26,-68,2,-22,-11
1622149109391743,12,1,-6,22,22,11,-49,-24
1622149109391743,15,27,11,-23,-14,-10,80,19
1622149109406992,-21,-22,5,24,25,-21,-27,-5
1622149109406992,7,-3,0,-4,-14,9,-25,20
1622149109413829,-10,-15,6,8,9,-15,-22,-41
1622149109413829,5,16,-14,-21,2,2,25,-5
1622149109422866,-3,-14,-16,-33,-33,9,-56,-5
1622149109422866,9,7,9,26,-35,-9,36,18
1622149109428812,15,8,-13,-23,25,16,-30,-19
1622149109428812,-10,-11,12,25,14,-5,-10,11
1622149109444180,5,5,23,27,-17,-3,-103,-12
1622149109444180,-5,-2,-16,-41,55,-2,24,-1
1622149109459872,-3,-24,-9,9,-20,-8,19,-16
1622149109459872,-13,-1,-3,12,6,11,-10,26
1622149109466994,9,32,-2,-17,-13,-16,-25,-44
1622149109466994,-13,-32,-4,20,46,0,-31,-14
1622149109474656,-9,37,14,13,-15,-1,-22,20
1622149109474656,5,-7,-23,-10,-41,2,42,28
1622149109482756,-6,-14,-10,-27,10,11,53,-2
1622149109482756,5,3,1,6,7,-7,28,5
1622149109497658,22,-12,13,20,-39,-11,32,40
1622149109497658,-25,0,17,-4,52,-12,-64,-25
1622149109504551,6,2,-18,-7,-6,2,48,3
1622149109504551,-19,-22,0,-2,-29,-18,4,-19
1622149109511723,16,21,13,-8,0,-11,-38,30
1622149109511723,6,3,-8,6,31,-10,-21,-12
1622149109526891,20,-38,5,4,-41,-6,-1,16
1622149109526891,-33,48,2,-11,21,9,11,-25
1622149109534452,-2,8,-17,-49,-4,-4,-37,-16
1622149109534452,9,-8,5,35,-21,-15,17,6
1622149109549447,-6,0,-14,-20,11,-8,-29,-19
1622149109549447,2,-25,24,53,53,-4,-46,0
1622149109550415,-2,-1,-21,-25,-8,39,19,10
1622149109550415,-12,6,-11,-23,9,19,89,-5
1622149109564376,11,4,7,30,17,-68,-88,11
1622149109564376,2,3,-1,-24,-52,34,18,4
1622149109571386,-12,-25,2,-1,0,14,-19,-30
1622149109571386,6,3,-1,7,-14,-32,31,8
1622149109586859,0,-9,1,-34,-60,12,29,1
1622149109586859,9,18,3,6,41,6,-3,25
1622149109593813,-9,-5,-11,40,45,-31,8,-28
1622149109593813,-1,-21,-17,-37,-38,12,-66,-12
1622149109609797,-6,24,4,18,50,52,24,-20
1622149109609797,-20,-3,21,-24,-44,-12,-16,-11
1622149109610765,11,-16,-6,22,-47,6,7,43
1622149109610765,8,4,-19,-27,16,19,70,17
1622149109623764,-14,22,19,31,21,-11,-65,-39
1622149109623764,14,-14,-12,18,-43,-10,-2,11
1622149109631988,-12,-7,-9,-27,52,10,-2,-3
1622149109631988,1,-11,-9,-30,-79,4,-59,-54
1622149109646300,-14,-10,-10,10,54,-1,5,2
1622149109646300,16,15,0,14,-5,42,93,5
1622149109654296,-7,-14,9,10,25,-37,-41,1
1622149109654296,-14,19,12,3,-2,28,-94,-47
1622149109669381,13,-17,-18,-52,-60,-11,101,61
1622149109669381,-3,34,-2,11,29,4,-95,-34
1622149109670377,-8,-10,-2,-13,17,-23,30,7
1622149109670377,5,9,9,26,31,6,17,-2
1622149109685338,12,-7,-6,-2,-5,-22,-57,-10
1622149109685338,-26,-7,8,-27,-19,-23,1,-22
1622149109691346,-14,-13,-22,34,44,43,62,-22
1622149109691346,-13,-18,-10,-12,-49,-31,-41,-3
1622149109706305,2,6,1,27,-13,1,-2,-1
1622149109706305,18,-21,9,12,23,-40,-21,27
1622149109714082,-4,32,-4,-11,-19,30,-34,-5
1622149109714082,2,-26,5,13,36,-10,-29,11
1622149109729997,5,16,0,5,6,7,65,32
1622149109729997,-4,4,-10,-28,-8,19,-2,-6
1622149109730995,6,-6,15,14,-26,-22,26,4
1622149109730995,2,1,-7,17,30,-1,0,20
1622149109745425,-5,4,2,-22,-5,9,-27,1
1622149109745425,3,-11,-23,-14,37,-6,35,0
1622149109751432,4,4,7,-3,-103,-15,-22,12
1622149109751432,3,8,-2,-15,12,3,33,7
1622149109767020,-10,3,-7,-16,24,-3,-27,-19
1622149109767020,0,-11,-8,-1,16,13,33,11
1622149109773899,-1,-8,1,-1,-25,6,2,-14
1622149109773899,-4,-2,4,-3,-13,-33,-49,17
1622149109789882,-3,8,7,-19,5,30,-35,7
1622149109789882,35,47,7,45,-24,-20,19,17
1622149109790991,-10,-10,-14,-64,8,20,10,18
1622149109790991,-6,-7,3,22,-38,18,67,-38
1622149109805781,-9,-10,-8,16,43,-16,-11,-26
1622149109805781,16,-32,-10,7,-39,8,37,11
1622149109811895,3,28,18,-24,74,-6,-20,-35
1622149109811895,4,-2,7,18,-30,-22,-23,13
1622149109826952,-13,-4,-14,-34,10,27,46,17
1622149109826952,-6,-6,3,-12,-13,24,-44,-17
1622149109834456,2,-2,-10,33,24,-48,-15,-12
1622149109834456,-4,0,4,-10,12,33,15,6
1622149109849445,5,2,18,61,12,-15,-25,-17
1622149109849445,-5,-4,-8,-7,-42,-3,10,-4
1622149109850451,-6,-7,5,0,37,25,-37,37
1622149109850451,6,-1,1,-2,-71,-33,-37,2
1622149109865380,-8,-12,-15,-49,19,17,40,13
1622149109865380,7,16,9,15,4,-12,-28,-18
1622149109871385,0,-8,1,22,-46,-2,29,8
1622149109871385,-3,11,-12,33,78,-20,25,18
1622149109886841,-3,-3,-8,-42,-70,-8,-56,-36
1622149109886841,-29,-32,-11,-18,6,3,8,1
1622149109893801,3,9,11,-20,-8,10,48,-1
1622149109893801,8,-3,-7,-18,16,-9,-81,-23
1622149109909756,2,2,5,32,-6,14,41,22
1622149109909756,-4,-10,-8,-24,-5,-22,-30,1
1622149109910755,-3,4,4,30,18,-7,-27,-13
1622149109910755,-2,7,9,-4,27,-4,-10,10
1622149109925809,-6,-14,-12,-22,-55,0,43,-19
1622149109925809,0,7,-1,4,37,6,-21,-24
1622149109931865,16,2,-6,3,23,12,23,23
1622149109931865,-1,26,-6,-15,4,1,49,16
1622149109946825,-2,-9,0,39,3,-14,-24,5
1622149109946825,2,5,10,-5,20,9,31,14
1622149109961782,-6,-14,-7,-26,-72,8,-21,-24
1622149109961782,-9,-8,0,-13,68,16,24,5
1622149109969774,26,-15,-10,-2,-18,-36,-73,-4
1622149109969774,-4,22,15,6,-29,-12,-17,33
1622149109970774,8,6,5,31,28,27,6,-26
1622149109970774,-7,-2,-21,-55,-43,-12,-83,-20
1622149109985783,-4,4,8,27,55,13,34,20
1622149109985783,-3,-27,-8,-16,7,21,25,-2
1622149110007501,-2,-6,-8,19,7,-48,-31,14
1622149110007501,8,27,14,17,-60,29,37,-10
1622149110015990,-5,5,-2,-6,-30,-8,12,19
1622149110015990,0,-4,-6,11,18,-13,-29,2
1622149110017656,-13,-16,-12,-30,-55,17,45,-45
1622149110017656,-3,-13,-8,-1,40,-5,2,21
1622149110054746,2,1,22,-4,7,-29,7,24
1622149110054746,-3,12,-4,5,-27,-7,1,-17
1622149110054746,-1,7,-8,26,36,9,14,-22
1622149110054746,-1,-28,3,21,-17,-20,-92,-11
1622149110056743,-6,27,-9,-25,6,6,65,-17
1622149110056743,0,-35,9,-20,3,0,-9,10
1622149110059832,-20,16,5,3,19,-9,113,30
1622149110059832,12,-13,0,-3,-48,-6,-9,-38
1622149110067059,13,17,16,16,96,-14,-8,25
1622149110067059,-17,7,-4,-3,-65,18,-18,-16
1622149110082770,-2,-14,-11,-9,50,-29,-46,26
1622149110082770,1,-13,14,27,26,-6,60,-5
1622149110089851,-2,2,-9,-24,-46,2,3,-11
1622149110089851,4,-8,-10,6,16,-5,2,6
1622149110091044,0,-16,7,-7,-7,-4,-69,-31
1622149110091044,-4,14,-4,-13,1,22,49,-1
1622149110105290,14,-12,-2,-2,-61,-10,-22,-2
1622149110105290,-4,15,10,26,43,25,105,48
1622149110119884,1,3,2,-38,-26,-30,-102,-19
1622149110119884,-3,-7,-19,-29,-34,-11,18,1
1622149110127104,-8,-19,-2,6,19,11,-18,-24
1622149110127104,-6,2,-9,-7,-23,-13,-2,-16
1622149110134596,18,12,14,43,15,38,45,16
1622149110134596,4,11,6,-14,1,-21,-7,17
1622149110157746,-16,-15,-13,17,8,10,-14,-6
1622149110157746,1,-8,1,-17,-36,18,-24,-14
1622149110157746,7,-13,-8,1,23,4,4,28
1622149110157746,-9,14,6,12,-26,-41,-41,-40
1622149110165727,15,18,-1,-14,27,15,-4,-10
1622149110165727,-17,-22,2,-17,50,7,16,6
1622149110172055,-4,5,3,-5,-60,-18,-10,-7
1622149110172055,-11,-10,-8,23,12,64,41,20
1622149110202917,-11,-3,0,11,-2,-8,21,-19
1622149110202917,22,4,6,7,-47,-10,-30,28
1622149110203890,-4,9,22,9,20,-32,-35,0
1622149110203890,2,-14,-17,-8,46,13,30,7
1622149110209881,-3,19,-2,-23,-7,10,-18,-2
1622149110209881,-1,-7,7,11,-6,1,7,1
1622149110210985,11,-6,-23,-36,-6,-13,10,18
1622149110210985,4,11,9,14,0,2,14,-11
1622149110225822,-2,-4,16,-4,8,52,38,20
1622149110225822,-10,-7,-26,-4,39,-9,-27,-32
1622149110239804,8,-10,15,7,-69,1,25,40
1622149110239804,-8,9,-5,-25,32,6,-27,-1
1622149110246789,-11,-21,-4,23,-43,-15,-41,-25
1622149110246789,21,25,-4,-17,36,-18,67,11
1622149110253794,-21,-3,19,38,-17,3,-66,-25
1622149110253794,8,-8,-5,4,10,18,4,8
1622149110276991,-3,12,9,2,17,-8,13,9
1622149110276991,18,-12,-7,-22,-32,-17,-42,23
1622149110277882,2,18,-2,14,65,51,19,-37
1622149110277882,-17,9,16,19,-46,-62,2,-5
1622149110285809,-2,-5,-13,-47,-46,-20,-20,-8
1622149110285809,3,-4,3,27,34,4,14,15
1622149110291825,-15,12,4,1,-16,3,7,7
1622149110291825,2,-27,-4,17,14,0,-46,25
1622149110322717,10,23,-12,-22,39,-28,56,-3
1622149110322717,-5,-6,24,9,-35,-5,-111,-22
1622149110323713,-1,6,-14,27,58,7,37,18
1622149110323713,4,-20,-11,11,-17,16,20,5
1622149110328726,-9,-12,-2,-4,-20,-10,-25,38
1622149110328726,5,25,12,14,32,10,0,12
1622149110337122,3,-13,-21,-24,-54,-37,-36,-17
1622149110337122,-3,2,-12,-41,4,7,52,8
1622149110345103,-3,-13,9,11,-10,0,-31,-11
1622149110345103,-5,13,-10,-20,1,-6,57,-4
1622149110359878,5,-10,-17,-35,14,13,-5,-1
1622149110359878,14,-7,12,12,-5,16,17,7
1622149110367111,-12,5,-12,-24,-25,-3,10,4
1622149110367111,3,1,25,78,13,-5,-6,-31
1622149110374665,-2,3,9,-24,-5,5,-27,15
1622149110374665,4,-1,-9,-22,-34,-21,-2,-8
1622149110397025,1,2,3,14,36,1,18,12
1622149110397025,-11,-10,-15,-6,-34,4,-1,-26
1622149110397999,2,-3,-13,-21,-17,-2,-104,-6
1622149110397999,-2,4,20,31,-9,-6,42,4
1622149110406090,3,2,-21,-42,26,15,-5,-6
1622149110406090,-7,-1,0,5,-38,11,18,-31
1622149110411872,-2,-10,0,40,-15,-17,4,-14
1622149110411872,-1,-21,-12,-63,-20,8,1,42
1622149110427047,6,15,-13,38,37,-21,-15,2
1622149110427047,-15,0,20,-23,-37,14,19,-12
1622149110434638,6,8,11,1,12,28,62,-13
1622149110434638,-6,-15,1,19,12,-47,-68,12
1622149110458474,14,9,4,-8,22,5,-15,-40
1622149110458474,-7,-5,-20,-18,8,-11,-6,11
1622149110459475,2,8,-3,-26,-30,-13,15,-12
1622149110459475,-8,2,3,17,18,12,37,7
1622149110465458,7,-5,25,34,16,17,45,24
1622149110465458,-4,-7,-30,-12,19,-9,-56,-47
1622149110472055,3,-4,4,16,29,-22,9,26
1622149110472055,1,20,14,17,2,34,-7,4
1622149110487059,-3,-11,-13,-17,28,-31,-66,-30
1622149110487059,5,-10,-9,-35,15,1,37,22
1622149110494069,-2,3,1,42,-7,5,20,-6
1622149110494069,-14,4,-9,-18,48,0,-19,-38
1622149110517638,-3,-20,10,6,-62,12,15,12
1622149110517638,1,-4,-2,-8,10,11,24,18
1622149110517638,3,-10,-19,-61,-64,-10,-23,8
1622149110517638,1,29,20,40,44,10,-8,-26
1622149110532591,-7,3,-3,4,-16,-16,2,10
1622149110532591,4,-8,-4,-15,-1,40,-19,-2
1622149110532591,-14,-15,-1,-18,-31,-28,53,39
1622149110532591,4,6,-3,20,12,34,36,-30
1622149110554564,17,-15,-13,-9,-32,15,-11,14
1622149110554564,-20,11,27,-3,0,-18,-17,-5
1622149110555535,-2,1,-8,35,37,3,7,12
1622149110555535,-2,-8,-1,-45,9,-7,-70,18
1622149110569626,-3,-4,1,-17,-46,5,89,-20
1622149110569626,3,14,-16,14,0,-47,-89,-4
1622149110577094,-1,4,22,14,26,46,2,-57
1622149110577094,8,9,-11,9,19,0,16,15
1622149110609799,9,-10,2,11,-27,1,-36,-1
1622149110609799,-28,-27,-12,-43,12,0,11,8
1622149110610799,15,23,4,9,-9,2,26,19
1622149110610799,0,23,-6,8,-8,-10,-44,-20
1622149110614819,-6,-3,0,-4,25,32,73,3
1622149110614819,9,-4,6,34,-27,-1,-67,-3
1622149110615785,-10,-16,-6,0,40,-8,13,3
1622149110615785,-3,-20,-15,-43,-53,-8,14,-15
1622149110636907,4,15,8,51,15,-4,-43,-21
1622149110636907,-11,3,-15,-34,3,-10,-29,14
1622149110637879,-8,-4,9,-1,21,9,-85,-22
1622149110637879,12,11,3,18,2,18,64,-13
1622149110651935,-13,-14,-8,-42,-30,-10,21,58
1622149110651935,7,-10,10,39,36,7,32,30
1622149110652839,36,13,-6,-15,-12,11,-26,-11
1622149110652839,-48,1,3,-27,-41,-29,32,-13
1622149110675254,1,-3,2,24,72,-1,-40,2
1622149110675254,3,-18,-3,7,3,-7,24,15
1622149110676111,5,-1,-14,-19,-38,7,-29,-33
1622149110676111,14,-6,28,43,11,-22,4,42
1622149110689418,-5,5,-9,0,-35,-4,-13,-5
1622149110689418,-9,10,-7,-6,3,1,-2,-3
1622149110696137,-4,-9,1,-27,19,13,-25,-26
1622149110696137,10,-13,-13,3,-31,-1,-13,1
1622149110713880,-18,3,26,13,7,-13,-35,-3
1622149110713880,8,-8,-18,-30,-8,-17,37,3
1622149110714882,-2,4,7,21,-3,16,-51,-14
1622149110714882,12,13,0,12,1,-3,45,34
1622149110736109,-9,3,-5,2,2,-22,-25,-8
1622149110736109,12,25,7,12,-5,0,-7,-23
1622149110737106,-13,-5,5,-6,-4,-22,7,-3
1622149110737106,3,1,-1,-12,16,8,-9,-32
1622149110757643,8,6,12,61,14,17,4,-6
1622149110757643,22,3,-6,-53,-72,-14,16,-6
1622149110758062,-39,-20,-19,-12,-11,-24,37,36
1622149110758062,11,0,-4,-8,5,2,-51,-30
1622149110772769,-5,2,-7,-3,38,3,25,-19
1622149110772769,5,14,13,18,28,-7,-55,4
1622149110772769,1,-13,3,-8,-38,10,34,34
1622149110772769,2,-13,-12,7,14,-3,28,-10
1622149110794830,-15,8,-4,-20,3,10,-68,-58
1622149110794830,3,2,14,56,25,11,48,18
1622149110795829,3,1,-13,-57,-23,-27,-12,-1
1622149110795829,-9,-13,5,6,24,16,-36,-26
1622149110808943,9,3,-8,-27,-41,-30,8,33
1622149110808943,-10,-2,4,30,14,13,28,-29
1622149110816922,14,4,14,17,-17,-4,-21,15
1622149110816922,-13,10,-2,22,11,1,38,16
1622149110833767,0,-10,0,1,-14,11,17,35
1622149110833767,-1,-9,-12,-35,-14,-2,-34,-17
1622149110834788,-17,18,7,41,-7,-30,32,4
1622149110834788,-5,-27,-24,-59,14,12,-34,5
1622149110847867,1,-17,8,-8,-68,-26,16,25
1622149110847867,9,22,-3,18,14,-48,-4,-28
1622149110854552,-7,-10,4,-5,-38,81,74,48
1622149110854552,-8,4,1,54,32,-20,-83,-22
1622149110871157,1,3,-19,-47,12,4,23,-8
1622149110871157,0,-11,16,13,9,-9,-7,63
1622149110877122,-1,0,9,20,31,28,11,17
1622149110877122,17,11,18,-12,-31,-28,-11,9
1622149110891861,-8,13,-9,20,24,11,12,-24
1622149110891861,-3,-7,-10,-14,-11,7,-39,2
1622149110892858,3,-4,0,-8,41,-16,2,-10
1622149110892858,0,7,-4,-7,-45,22,-5,-38
1622149110914872,7,-1,10,-4,-32,2,-24,-20
1622149110914872,-4,0,-12,31,-2,4,53,12
1622149110916047,5,-14,-5,-5,-25,-17,7,-10
1622149110916047,-20,-6,1,-31,12,2,-10,-6
1622149110928909,-4,-1,-7,19,63,24,4,9
1622149110928909,8,-4,4,-25,-79,9,44,-23
1622149110936924,-13,14,-9,23,1,-24,10,12
1622149110936924,10,-18,-1,-26,8,5,-11,18
1622149110951992,16,34,13,18,-47,8,-4,3
1622149110951992,-6,-9,1,-17,68,-10,-22,8
1622149110952883,6,-5,-10,-23,-7,7,48,-40
1622149110952883,6,-3,-8,-16,-7,-15,-13,31
1622149110967689,-10,-18,-2,4,-15,8,19,2
1622149110967689,5,-3,5,28,29,26,41,24
1622149110974547,-6,11,-1,-1,49,-29,-32,-32
1622149110974547,-3,-7,-22,-12,-98,-5,25,-1
1622149110990806,7,-5,29,-7,43,-2,-34,38
1622149110990806,-17,-10,-18,-19,-37,12,0,-3
1622149111004767,5,5,-7,-10,20,1,-21,-75
1622149111004767,0,3,6,29,12,-23,-39,15
1622149111011784,26,-7,-12,12,29,41,25,24
1622149111011784,-38,-6,-9,-30,-21,-5,-7,-65
1622149111012747,3,0,5,21,38,2,4,29
1622149111012747,-10,-15,-5,-22,-81,23,100,-15
1622149111026986,9,61,9,2,5,-22,-12,-33
1622149111026986,6,-11,32,-12,-2,-9,-47,-27
1622149111034671,7,-19,-8,18,7,-6,-5,31
1622149111034671,-8,26,2,-33,40,39,-20,6
1622149111048886,-19,-24,-21,-23,-34,-67,-10,-41
1622149111048886,4,3,0,13,-6,24,34,34
1622149111056883,-1,-5,-2,10,-2,-10,5,12
1622149111056883,4,-1,12,45,34,-9,-22,-3
1622149111074653,-4,-25,-19,-24,-18,-5,-17,2
1622149111074653,0,24,-7,-22,-11,-5,-17,14
1622149111075628,-1,-2,21,5,-23,-4,19,-15
1622149111075628,8,3,-4,8,26,42,12,49
1622149111088099,-1,-10,-6,-41,-10,-8,-42,-53
1622149111088099,-16,-9,-3,24,7,2,31,1
1622149111094106,5,10,-14,-15,13,-8,-67,38
1622149111094106,4,1,1,-1,2,-5,33,-52
1622149111109069,-14,20,7,17,51,-11,-28,-7
1622149111109069,7,-2,-6,17,-16,25,11,33
1622149111116339,-1,-8,2,-29,30,-8,-12,7
1622149111116339,-1,2,-5,47,5,-42,-41,-19
1622149111132610,0,-17,5,-25,-11,16,25,34
1622149111132610,12,7,10,20,32,6,-27,-35
1622149111133589,2,5,-1,3,-20,22,63,36
1622149111133589,-8,-4,1,3,-5,0,-14,-1
1622149111148571,0,-20,-7,24,60,14,26,26
1622149111148571,-1,-4,0,-20,-23,1,-5,-7
1622149111154638,1,30,6,-11,-7,2,-33,-47
1622149111154638,2,-5,0,17,14,1,13,11
1622149111168783,3,-11,-2,-17,-5,-14,-30,-13
1622149111168783,-15,2,4,1,54,11,-27,3
1622149111176879,-3,-9,5,20,-22,27,98,10
1622149111176879,7,-12,-18,-34,-20,-75,-118,-7
1622149111192566,-3,34,21,48,-3,15,27,10
1622149111192566,7,-22,-15,-28,-13,7,-30,35
1622149111193551,18,22,-6,-16,-2,-6,15,6
1622149111193551,-1,16,4,-3,-9,14,32,-47
1622149111207719,-33,-29,-4,15,26,3,50,31
1622149111207719,3,-11,-9,-67,-101,-49,-31,-50
1622149111213766,-7,-13,-18,35,13,-1,7,37
1622149111213766,0,-21,7,-18,-33,2,-48,14
1622149111237652,14,24,19,39,1,-5,13,19
1622149111237652,-7,1,-12,21,48,33,7,-51
1622149111238655,2,-15,9,-28,-40,-38,2,-6
1622149111238655,-6,0,-16,-13,40,-5,-78,20
1622149111251642,1,-2,4,7,-6,12,66,-38
1622149111251642,1,-3,-3,2,11,-17,8,29
1622149111258822,7,24,10,-6,20,21,-5,-3
1622149111258822,-2,-6,-18,-18,1,-11,26,58
1622149111267884,-10,-13,-5,5,-62,-17,-35,-8
1622149111267884,17,50,9,3,58,20,1,-1
1622149111282810,-7,-20,-18,3,-40,-17,-14,1
1622149111282810,-4,-13,-7,-18,-4,9,14,-38
1622149111288781,-7,19,12,4,31,18,-23,-28
1622149111288781,4,-3,4,21,-20,-26,17,10
1622149111297095,-17,-15,5,-5,-28,-2,-6,-26
1622149111297095,5,12,19,5,-1,-10,-3,8
1622149111311884,7,-28,-20,-15,31,9,15,-9
1622149111311884,-21,1,-14,-26,-50,0,56,12
1622149111319029,7,16,30,41,9,-17,-47,3
1622149111319029,-6,0,-1,-25,-7,-22,-3,-34
1622149111327890,-13,-26,-27,-25,-3,0,-37,0
1622149111327890,22,11,1,19,-19,-7,21,6
1622149111333883,-1,-3,-8,-10,26,32,2,-15
1622149111333883,7,24,11,0,1,-10,65,67
1622149111349308,9,-4,-1,-2,-11,4,-58,-31
1622149111349308,-3,-18,-11,3,4,27,3,1
1622149111357140,-8,-14,-10,12,-5,-7,-11,-9
1622149111357140,7,5,13,-9,1,11,-30,2
1622149111371844,0,-1,3,-14,-61,-8,10,0
1622149111371844,-13,-14,-9,-14,52,-10,-22,8
1622149111378878,10,-3,1,3,-5,14,52,3
1622149111378878,0,-6,-2,-4,-9,17,12,-18
1622149111396895,7,-11,-25,-23,16,-22,26,45
1622149111396895,-32,-8,9,23,-14,24,14,-30
1622149111397889,2,28,-7,-4,45,-36,9,13
1622149111397889,-5,-13,0,15,-9,5,-34,-21
1622149111408769,8,9,31,-5,-10,14,53,12
1622149111408769,5,-7,-4,35,-3,-21,-78,5
1622149111417110,-6,-4,-17,-38,-11,15,1,-14
1622149111417110,-3,1,10,33,-10,-39,-12,17
1622149111431677,1,12,9,20,29,5,4,-5
1622149111431677,4,-6,-7,-86,-35,-3,-13,-3
1622149111439235,-4,-11,2,77,6,3,-27,8
1622149111439235,-3,-4,-7,13,22,31,-8,-39
1622149111455169,-13,5,-10,-23,-18,-9,30,-4
1622149111455169,15,-2,5,19,21,-25,-17,3
1622149111456100,-13,-16,-5,4,15,13,14,-23
1622149111456100,16,19,-2,-23,-25,14,18,71
1622149111469273,-9,-19,7,-9,14,25,-16,-45
1622149111469273,5,37,15,11,-6,-13,-58,-50
1622149111477105,2,-8,-6,-8,-4,-6,-12,0
1622149111477105,2,-5,3,10,-18,-11,-13,4
1622149111492080,-8,-33,-18,-30,-1,12,-58,42
1622149111492080,26,28,3,21,-8,-30,90,-14
1622149111499625,-21,8,8,-12,-38,29,10,-9
1622149111499625,-2,-4,15,13,6,0,26,-6
1622149111514990,-2,14,-1,0,-20,-11,-101,3
1622149111514990,5,-33,-13,-80,-37,-3,84,31
1622149111516104,2,-3,-17,47,17,-9,-24,7
1622149111516104,-15,3,5,-37,9,31,53,-16
1622149111529015,12,13,2,84,12,-24,-6,-4
1622149111529015,-8,-25,2,-29,10,40,54,16
1622149111536879,3,-3,-9,-33,-10,-46,-115,-31
1622149111536879,-7,5,4,-3,-4,7,25,12
1622149111559738,13,9,-5,14,18,23,60,27
1622149111559738,-16,6,13,61,12,-6,-61,-23
1622149111560737,1,-15,-14,-98,-45,-3,14,41
1622149111560737,10,7,-10,14,48,-14,-107,-31
1622149111575203,-3,14,-3,-26,-18,4,73,-6
1622149111575203,-22,-32,-1,9,-58,-8,14,13
1622149111575786,5,46,11,13,7,1,-15,29
1622149111575786,-10,-21,-12,-1,-6,20,-27,-2
1622149111590838,7,4,-6,-9,19,2,56,-9
1622149111590838,4,3,-4,10,42,13,-119,4
1622149111596800,-2,-17,-5,-7,1,-8,26,-27
1622149111596800,2,13,7,17,2,-20,36,8
1622149111611761,-10,16,0,-26,-22,13,-54,-5
1622149111611761,0,-18,-11,42,35,27,26,19
1622149111618758,5,20,-8,-54,-14,-24,-59,-10
1622149111618758,-9,-5,4,53,66,1,97,-15
1622149111635208,-4,-48,-22,-30,-62,-15,-40,-13
1622149111635208,-6,33,0,-7,-17,-15,-2,2
1622149111635783,5,3,15,11,-7,34,1,8
1622149111635783,-8,-8,-14,-19,23,4,-36,-62
1622149111648754,11,6,11,25,21,-6,15,16
1622149111648754,-26,-13,-13,-31,-45,-45,-63,-1
1622149111656757,5,-11,19,13,47,20,29,-14
1622149111656757,0,2,-6,15,-15,13,5,2
1622149111688465,-7,-19,-8,-18,-40,-20,-8,3
1622149111688465,13,22,-6,1,20,16,8,31
1622149111688465,-2,1,11,38,33,-2,46,0
1622149111688465,5,-15,-12,-64,-56,-16,-12,19
1622149111694454,-5,17,-5,9,13,-6,4,-12
1622149111694454,15,12,10,-4,18,20,46,6
1622149111695451,-12,-28,-9,-8,-28,-44,-58,-16
1622149111695451,1,7,-2,-1,7,8,89,3
1622149111717764,-3,-25,0,2,15,-6,-15,-21
1622149111717764,9,33,5,-4,-8,-6,12,46
1622149111717764,-8,-13,6,-20,-20,-22,10,-59
1622149111717764,0,8,15,96,47,23,-50,35
1622149111732067,4,-9,-1,-24,6,-34,-11,-5
1622149111732067,-6,16,-27,-44,27,34,-4,-16
1622149111747289,3,1,21,29,49,4,2,6
1622149111747289,19,-2,7,-12,-87,-11,36,25
1622149111755292,-21,13,-8,-10,56,13,-13,-20
1622149111755292,0,-17,25,83,-11,-5,4,-8
1622149111755292,-5,5,-15,-43,-10,-30,-26,16
1622149111755292,1,-8,-2,-41,-10,14,15,-39
1622149111785857,-4,4,9,23,17,3,2,40
1622149111785857,6,-5,-2,-20,-36,-8,-43,-52
1622149111786775,-8,-24,-17,-6,55,28,-28,-4
1622149111786775,-7,24,20,34,-31,-26,20,-15
1622149111791751,2,-7,-15,-11,8,11,-29,-28
1622149111791751,-2,-9,4,-3,8,-6,83,17
1622149111799623,7,-12,-11,-21,2,11,-17,-25
1622149111799623,-17,-26,-7,-23,-28,-15,-19,12
1622149111815105,-1,48,0,19,7,4,34,29
1622149111815105,-3,-9,6,-16,-15,-12,-5,24
1622149111816093,14,-2,-1,58,18,0,-28,-8
1622149111816093,-25,-12,-30,-58,-18,19,-11,23
1622149111836894,-5,-17,3,31,34,-29,21,-25
1622149111836894,22,-1,13,-3,41,4,16,16
1622149111837889,-11,18,-1,-11,-34,-21,8,15
1622149111837889,-8,-17,-15,3,-2,8,-39,-5
1622149111852106,6,28,8,34,10,-28,-56,-63
1622149111852106,-11,-16,0,29,36,21,8,-34
1622149111859626,6,4,5,19,-23,21,105,7
1622149111859626,1,-19,-17,-37,16,-42,-84,-11
1622149111875280,3,14,12,0,-16,36,40,43
1622149111875280,6,4,4,19,-2,-21,-17,19
1622149111876136,-3,-7,-11,0,-5,14,8,-1
1622149111876136,13,3,4,-6,38,19,-21,-36
1622149111888782,-7,-8,-2,-15,-58,-37,65,45
1622149111888782,-7,19,-5,-15,25,-13,-32,-11
1622149111896451,-3,0,-2,18,16,14,19,35
1622149111896451,4,16,1,3,17,-28,-29,-44
1622149111911812,0,-19,-1,0,-28,12,-26,-13
1622149111911812,3,24,-11,-35,1,3,27,-6
1622149111919623,-4,1,7,12,18,2,-13,-3
1622149111919623,0,-9,2,23,45,10,-3,0
1622149111935271,9,4,-3,-7,-2,14,66,4
1622149111935271,15,1,-7,-8,-37,-60,-35,-4
1622149111935781,-23,-6,1,-3,7,24,-24,-15
1622149111935781,2,8,5,8,9,-10,30,29
1622149111948774,-12,-8,-5,-2,-54,22,21,43
1622149111948774,-3,-5,-5,17,56,32,12,-20
1622149111956936,5,-3,-12,-43,-54,-51,-64,6
1622149111956936,0,4,5,18,-15,21,91,16
1622149111972129,-3,-8,3,-25,13,-31,-82,-53
1622149111972129,-2,-25,-13,12,24,6,-10,21
1622149111987293,7,4,1,6,-43,12,0,-14
1622149111987293,6,22,7,14,18,27,48,31
1622149111995251,5,1,10,-11,-19,-3,-41,3
1622149111995251,-7,0,11,20,11,-12,21,1
1622149111995251,4,-16,-9,-39,16,-11,6,16
1622149111995251,1,15,1,-17,-2,13,-71,-5
1622149112009467,-1,-19,-4,19,15,-2,57,-3
1622149112009467,-7,25,-26,-42,-31,20,-37,-15
1622149112017035,3,-3,35,6,-42,5,54,21
1622149112017035,-1,-3,4,58,66,-7,-49,-17
1622149112031542,-10,-11,-23,-32,-59,-22,-41,-16
1622149112031542,12,-16,9,11,-4,2,11,-29
1622149112039521,-10,-5,-25,-11,-27,17,15,30
1622149112039521,0,-15,-4,-21,-26,-34,3,10
1622149112055280,6,43,2,24,26,18,18,-21
1622149112055280,-11,-28,1,-11,35,5,-16,-10
1622149112056139,7,10,-7,6,-34,-32,26,31
1622149112056139,-17,-3,-1,-11,1,-11,-33,-16
1622149112068869,4,-14,-7,-33,-16,42,0,13
1622149112068869,-2,0,-3,44,-26,2,1,15
1622149112077053,2,15,3,-5,52,9,-59,-50
1622149112077053,-4,-6,-19,-24,-39,1,23,-16
1622149112092113,0,-12,15,20,23,-5,40,45
1622149112092113,-9,3,13,-9,-45,-22,-55,-18
1622149112099456,-5,-23,-13,-5,9,-11,-115,-14
1622149112099456,-5,-9,-17,44,-19,29,119,8
1622149112115874,2,17,20,-55,0,-16,-39,9
1622149112115874,-1,-26,-7,12,10,-1,19,-6
1622149112117655,-5,9,-5,-21,-23,19,8,4
1622149112117655,17,-4,0,-36,3,-4,-1,28
1622149112128893,-6,15,5,23,-3,-12,-35,2
1622149112128893,-15,3,7,19,5,-20,13,14
1622149112137133,-2,-3,11,51,11,-13,-45,-21
1622149112137133,8,-5,-9,-44,3,2,54,15
1622149112152142,0,-21,-7,-7,18,-8,-13,-6
1622149112152142,26,21,5,1,-41,13,-17,25
1622149112159025,0,11,19,31,32,6,66,51
1622149112159025,-8,-10,-4,-22,-2,7,-33,-62
1622149112175304,15,16,-2,19,8,-10,-103,29
1622149112175304,-7,-12,-12,-18,20,-9,103,-12
1622149112176138,5,14,-3,6,-16,22,39,41
1622149112176138,-3,-2,-2,12,-21,2,-41,3
1622149112189549,6,-1,16,12,23,9,11,1
1622149112189549,6,-7,4,-13,-50,-11,8,-13
1622149112205048,-10,0,-15,-36,-15,-4,-44,-29
1622149112205048,-1,-1,4,32,36,-4,-31,5
1622149112211854,-12,1,-16,-36,-7,12,31,-43
1622149112211854,-1,-9,-5,-17,-72,-22,-2,33
1622149112219623,16,2,9,-24,35,-13,31,-7
1622149112219623,-18,12,17,48,11,-4,-35,-9
1622149112234626,-3,-13,-9,15,-29,6,3,-26
1622149112234626,-3,-17,-13,-10,73,-3,-10,-6
1622149112242607,11,13,0,-30,-16,16,6,-16
1622149112242607,2,-3,10,21,24,3,-31,8
1622149112249589,-6,-6,-12,-5,-16,-1,62,30
1622149112249589,0,-16,10,-13,11,13,-11,10
1622149112256667,0,13,11,42,26,11,22,3
1622149112256667,8,12,-9,-9,5,-67,-9,-14
1622149112281838,0,-11,4,-29,-57,36,34,43
1622149112281838,-11,2,6,-1,14,-14,-30,-23
1622149112281838,-12,-29,-16,-17,-9,-3,-41,-4
1622149112281838,14,12,2,-18,-33,13,2,-11
1622149112293834,-4,4,-2,-14,-5,-24,-30,-8
1622149112293834,0,3,-3,13,14,20,2,4
1622149112302808,-2,-14,-19,-23,-8,9,88,2
1622149112302808,5,10,32,12,-17,-11,-42,7
1622149112317764,-7,-5,-11,15,22,-9,-28,-32
1622149112317764,4,9,11,22,23,11,18,42
1622149112317764,11,-16,-11,-7,-23,2,-26,-44
1622149112317764,-28,13,-3,21,37,18,16,21
1622149112331714,14,-5,-13,-25,-30,-10,1,-8
1622149112331714,-9,10,17,17,27,-17,-13,-1
1622149112338671,-6,-13,-7,0,-68,-32,-30,15
1622149112338671,7,-4,-5,2,38,4,62,8
1622149112354624,8,-8,1,9,30,20,-96,-63
1622149112354624,-9,13,7,12,3,-12,108,51
1622149112361873,0,-11,0,2,0,-6,17,5
1622149112361873,-7,-28,-6,-21,-16,9,-8,-8
1622149112369664,13,45,-3,1,34,-12,16,35
1622149112369664,-5,-12,-3,-47,-38,32,-3,-39
1622149112376696,-3,17,11,30,30,-24,-64,-19
1622149112376696,1,-20,-19,-11,-9,15,37,21
1622149112394424,-15,-8,8,12,9,-1,23,-10
1622149112394424,-1,-11,-16,-17,-31,-25,-52,-14
1622149112399435,6,21,29,53,38,24,82,49
1622149112399435,-1,-6,-19,-46,-8,24,-78,-32
1622149112416107,29,4,20,4,-19,-19,-7,1
1622149112416107,-37,-9,-15,-13,-12,11,3,-4
1622149112422440,-16,-13,-12,20,6,4,-13,-23
1622149112422440,6,-3,-2,1,2,1,17,13
1622149112437728,-5,-11,1,-37,-20,-13,18,-80
1622149112437728,7,9,-4,45,-5,-21,-19,0
1622149112438407,-5,17,-6,-52,-9,-6,5,-13
1622149112438407,-4,-12,-8,9,5,-44,-49,4
1622149112451404,-11,-2,1,-11,63,39,35,14
1622149112451404,16,-2,8,-29,-61,15,-71,-7
1622149112459482,-12,-2,4,24,54,-8,20,-23
1622149112459482,4,2,-4,4,-54,-2,36,3
1622149112473772,-10,5,-1,33,27,10,4,57
1622149112473772,9,-3,-6,-15,25,-31,-34,-6
1622149112481248,3,-3,-9,-24,-46,16,-11,-7
1622149112481248,19,5,4,-8,-42,-4,21,6
1622149112497732,-25,-4,2,0,-17,-13,-26,18
1622149112497732,0,1,-8,-12,13,22,17,10
1622149112497732,4,-16,-7,-25,35,13,0,-8
1622149112497732,-7,-2,-3,20,-8,16,-4,-1
1622149112511775,19,-14,4,51,10,-17,59,2
1622149112511775,-3,20,-11,-31,-24,11,-33,-31
1622149112519661,-2,-8,1,-1,14,-20,12,1
1622149112519661,-5,-1,-5,-9,-33,-14,16,14
1622149112534692,-1,-12,-5,-20,1,6,-27,-10
1622149112534692,3,-2,4,-10,-12,12,-8,-7
1622149112549772,4,1,-1,39,15,16,63,6
1622149112549772,-3,13,-1,-10,6,8,58,20
1622149112557848,2,-22,-15,-17,-14,-48,-53,-22
1622149112557848,1,-6,10,27,12,-3,74,45
1622149112557848,13,6,15,23,26,17,-30,5
1622149112557848,23,32,-6,-64,-24,-24,-64,-34
1622149112579862,-52,-10,4,57,14,28,66,35
1622149112579862,18,0,-9,-45,4,5,-24,12
1622149112581140,-5,-19,-17,-18,-23,-8,-48,-18
1622149112581140,3,28,23,23,-7,-11,38,26
1622149112594175,16,1,6,25,30,-9,-26,-33
1622149112594175,-7,-4,-9,-17,-28,-8,9,10
1622149112601335,-1,3,3,48,-2,8,19,15
1622149112601335,-2,-14,14,-12,51,-4,-1,-12
1622149112617332,-2,15,-8,-30,-23,-3,-46,1
1622149112617332,-7,-4,4,67,63,7,27,-41
1622149112618663,6,0,-10,-49,-81,-20,-13,4
1622149112618663,-9,-6,7,-8,-4,47,30,32
1622149112632131,-3,8,-7,10,32,-45,-84,-52
1622149112632131,0,-20,11,-15,-32,-26,-24,-24
1622149112639320,-7,2,-11,19,1,24,30,30
1622149112639320,11,1,-9,25,4,-10,47,-29
1622149112656198,-12,-10,4,-45,-20,18,-9,30
1622149112656198,10,-3,-18,-7,26,20,-8,17
1622149112669819,-10,10,8,-25,-32,25,-34,-34
1622149112669819,1,7,11,68,42,-38,-40,-42
1622149112677402,7,-11,-12,-39,-46,22,60,48
1622149112677402,8,8,-4,12,13,-6,-26,-1
1622149112678192,-22,-17,-15,-25,41,-7,38,8
1622149112678192,-9,-13,0,0,-37,4,3,-13
1622149112692161,4,-1,-3,3,-9,1,-32,-14
1622149112692161,-6,5,19,-3,-3,18,55,49
1622149112699169,11,13,-24,-12,-17,-33,-77,-52
1622149112699169,-7,-1,21,10,64,9,-33,-9
1622149112713765,-8,4,-6,-31,-34,8,-9,7
1622149112713765,7,-6,10,51,22,15,69,14
1622149112721992,0,3,-5,-5,21,7,12,16
1622149112721992,-7,-7,-18,-43,-38,-1,41,2
1622149112737830,-2,-6,12,34,26,1,-87,-22
1622149112737830,0,5,-3,20,4,3,17,-35
1622149112737976,-1,9,19,-3,-21,9,42,8
1622149112737976,-2,-12,-13,-13,-68,-28,-26,-9
1622149112752181,-4,-5,-2,-12,29,11,34,14
1622149112752181,4,22,9,11,-7,-1,-10,-4
1622149112759681,9,1,6,7,9,-16,-30,-8
1622149112759681,-5,-2,15,12,-2,26,-17,16
1622149112774658,7,13,-5,-11,20,-35,20,22
1622149112774658,-17,-28,11,6,-32,3,-19,-41
1622149112782131,3,6,0,-1,-47,-6,39,3
1622149112782131,-15,11,-14,-15,34,6,19,17
1622149112799897,3,-9,-1,-1,-44,26,68,-8
1622149112799897,-1,16,-1,26,37,-35,-41,-5
1622149112804921,-6,-24,1,-10,23,-7,-10,7
1622149112804921,9,16,-2,-24,-70,-19,7,45
1622149112827775,4,-15,7,26,52,21,15,-2
1622149112827775,-29,-7,-23,-9,-57,8,1,-7
1622149112828780,12,-10,23,33,43,8,13,-4
1622149112828780,-2,0,-1,-1,21,-24,-36,15
1622149112833768,4,13,0,-10,1,-18,-50,-8
1622149112833768,6,-14,-17,-13,13,26,96,18
1622149112841746,-23,-21,3,-17,-45,-30,-20,-25
1622149112841746,9,1,-10,-2,-3,22,40,-38
1622149112857726,7,4,-6,14,20,14,63,-6
1622149112857726,5,26,-2,-22,-38,-32,-128,-54
1622149112857726,-7,-6,3,26,0,-21,23,24
1622149112857726,-14,-10,-7,-30,36,3,-46,-2
1622149112872117,10,-1,-17,-6,-20,7,27,-9
1622149112872117,-9,-15,1,25,39,-5,-24,1
1622149112878964,4,10,6,-23,-17,-3,-26,11
1622149112878964,3,-2,-3,-1,13,-1,3,-6
1622149112894234,-6,-11,-6,16,16,-18,49,34
1622149112894234,-3,0,-5,-24,-1,20,-82,-35
1622149112902180,-4,-12,-6,17,41,-9,7,59
1622149112902180,6,-9,-12,-27,-90,-7,-76,6
1622149112917845,9,13,24,-14,-25,6,44,-9
1622149112917845,20,-15,0,21,64,-2,31,15
1622149112917845,-13,61,45,95,55,22,25,-43
1622149112917845,-13,-32,-28,-51,-27,-33,-106,-21
1622149112932139,-2,-6,-15,-23,-16,-14,32,20
1622149112932139,2,-1,10,-20,-50,7,52,4
1622149112939339,2,-13,-17,23,-10,10,-42,1
1622149112939339,-10,-8,15,40,17,-10,32,-2
1622149112953919,-3,19,-6,-18,-34,11,-22,0
1622149112953919,-9,-4,1,-20,5,-1,26,33
1622149112961883,-2,-2,-23,-20,3,-23,-53,-3
1622149112961883,5,18,12,25,66,24,47,-6
1622149112977413,1,-12,2,8,-17,12,-24,-5
1622149112977413,4,13,2,-20,-14,8,77,34
1622149112977884,7,-20,-9,6,-14,-8,-62,28
1622149112977884,-1,11,-8,-5,30,8,-31,-74
1622149112991763,-2,6,-4,19,24,4,13,25
1622149112991763,-7,-7,20,19,7,-31,-80,-17
1622149112999642,5,-16,-20,-100,-83,11,36,-10
1622149112999642,3,17,2,2,3,-5,29,8
1622149113013876,-9,4,10,41,18,7,-18,-8
1622149113013876,-9,-5,-23,-8,-17,-31,-73,-67
1622149113021293,13,-4,28,10,43,-1,5,3
1622149113021293,-12,-21,-6,-2,-44,29,38,-5
1622149113037814,-17,-1,-11,-25,-32,-12,18,28
1622149113037814,9,13,-6,41,23,-7,-33,-8
1622149113037814,21,9,5,-27,18,27,-19,-2
1622149113037814,-14,-21,-22,-45,24,-1,68,6
1622149113052773,-7,21,18,9,-54,-32,-24,-1
1622149113052773,2,-10,-11,-1,45,8,-15,36
1622149113058757,-1,9,-12,1,-64,-26,1,-16
1622149113058757,17,6,37,46,31,14,3,38
1622149113074712,-2,-2,-5,5,-1,11,-8,-70
1622149113074712,0,1,-1,-45,1,-14,30,35
1622149113098917,-4,-4,-6,36,-1,1,-23,-39
1622149113098917,-2,24,10,0,22,-22,-85,-11
1622149113100884,17,-20,-7,-6,14,13,33,20
1622149113100884,-10,16,3,-11,-48,14,51,-9
1622149113105391,-10,-42,-16,-22,15,-5,21,-2
1622149113105391,3,48,1,10,-19,-14,4,19
1622149113111868,9,-3,7,-4,37,-17,-40,-13
1622149113111868,-16,0,10,49,9,29,25,-7
1622149113119673,-4,2,-7,-29,-3,-9,27,5
1622149113119673,-4,-31,-1,22,-16,-9,-23,7
1622149113135784,-4,12,-8,-28,13,5,-28,-27
1622149113135784,11,-17,-11,18,-3,-10,29,18
1622149113141771,4,36,14,-3,-16,-12,-29,-12
1622149113141771,1,-7,-4,1,-3,5,51,10
1622149113157216,3,-8,-12,-8,17,33,33,67
1622149113157216,13,-7,-8,-20,-6,-29,-50,-20
1622149113180807,-17,2,0,8,20,1,7,4
1622149113180807,3,-3,1,33,-41,18,23,8
1622149113182802,-3,-12,-8,8,7,-7,-20,16
1622149113182802,4,3,1,0,6,-2,27,-1
1622149113184797,-1,6,6,12,32,-5,35,27
1622149113184797,-2,-8,4,-19,-17,15,-60,-14
1622149113193773,2,6,17,25,0,-36,17,-3
1622149113193773,-3,4,2,21,8,33,30,0
1622149113209728,-2,-14,-12,-23,-13,-1,-52,-60
1622149113209728,-8,-17,-1,-17,-1,-7,17,12
1622149113225864,9,12,-11,-3,0,-1,-37,-11
1622149113225864,-3,-8,7,-23,15,21,-39,-55
1622149113226871,3,10,4,14,-34,-34,56,76
1622149113226871,2,-3,1,2,43,22,-8,-7
1622149113232180,0,-6,-16,7,15,-19,28,0
1622149113232180,-2,-3,-7,-38,-27,37,5,3
1622149113239430,11,-12,8,14,15,-7,21,8
1622149113239430,-9,24,16,25,20,-7,-29,-19
1622149113253982,-6,-27,-1,-9,-62,-8,35,-15
1622149113253982,-2,49,-5,-13,22,-21,-35,12
1622149113261881,3,-9,-7,0,23,33,29,18
1622149113261881,3,-11,-29,-43,-53,-44,-20,-7
1622149113277172,-2,-15,-2,32,41,57,0,-1
1622149113277172,15,-11,11,-8,-62,-43,-10,16
1622149113292866,-30,-5,-17,-12,32,16,7,0
1622149113292866,2,3,5,3,20,0,8,-1
1622149113294836,2,17,3,-17,-9,3,14,2
1622149113294836,0,-16,-10,2,19,-6,-28,-9
1622149113298849,15,-3,15,10,-4,29,24,-2
1622149113298849,-19,2,-21,-6,-9,-14,-36,-30
1622149113313867,-4,-23,16,-13,4,-25,-15,-17
1622149113313867,7,33,0,26,18,7,10,13
1622149113322129,-5,-17,-25,-57,-29,7,-20,-8
1622149113322129,16,17,25,30,6,8,59,64
1622149113336886,-9,-7,-10,27,19,13,-42,-35
1622149113336886,-6,-14,3,8,55,16,4,4
1622149113344866,-10,11,1,-16,-54,-10,-3,-15
1622149113344866,8,-13,1,9,13,-4,17,3
1622149113392370,3,13,1,10,-6,-12,-20,20
1622149113392370,-9,-12,-2,1,-24,11,63,28
1622149113392370,1,6,-5,3,64,1,-19,-10
1622149113392370,-9,-16,-9,-28,-49,-18,2,-20
1622149113394367,3,25,33,10,3,29,14,-3
1622149113394367,-17,-24,-19,-21,13,-20,-4,-13
1622149113398567,21,24,16,20,13,7,20,10
1622149113398567,-10,-37,-10,9,24,18,43,35
1622149113399567,16,62,0,1,2,-17,-86,17
1622149113399567,-1,-21,-4,-8,-31,0,34,-20
1622149113411875,-2,9,2,5,-58,-26,-40,-13
1622149113411875,-2,-14,-2,-44,-24,23,33,12
1622149113420983,3,-9,-1,10,22,-32,-68,-13
1622149113420983,-1,1,-15,-26,-21,17,14,34
1622149113420983,-7,3,23,12,5,18,16,-18
1622149113420983,6,3,-3,22,25,-16,-59,-23
1622149113434711,-15,-17,-7,3,-43,-4,33,40
1622149113434711,-4,18,-11,-34,-23,-8,-59,-52
1622149113449857,-7,-24,-9,-10,14,1,2,14
1622149113449857,12,33,4,-7,32,-12,-16,27
1622149113456945,-2,-7,7,-15,-18,10,40,-15
1622149113456945,-1,-8,26,57,24,2,-4,21
1622149113465366,9,-4,-19,-12,25,-5,11,1
1622149113465366,-3,3,-10,-29,-67,-12,4,-17
1622149113487965,-8,1,24,55,80,-3,22,11
1622149113487965,1,-10,-1,-18,-28,-12,-10,-8
1622149113489963,-6,-8,-3,-19,35,-11,-41,-50
1622149113489963,4,16,6,34,52,25,40,48
1622149113493951,2,-16,-22,-28,-76,-15,-18,-42
1622149113493951,-2,-21,2,-16,26,-4,-9,-4
1622149113509874,7,31,0,7,-32,10,-9,7
1622149113509874,-16,-28,5,7,34,16,41,-7
1622149113533606,5,11,-1,-18,-13,-39,-37,-21
1622149113533606,4,-10,-2,20,1,-3,34,70
1622149113533789,-2,-2,-18,-27,-26,-33,-60,-21
1622149113533789,11,-11,9,9,1,-5,4,-3
1622149113539800,-15,-2,-3,11,33,13,-56,-33
1622149113539800,2,9,-8,-33,-86,1,34,42
1622149113540774,-12,-10,-5,-2,23,20,17,-15
1622149113540774,2,5,-12,-4,-7,-9,-17,-22
1622149113554677,3,-19,5,-3,-8,-1,-20,6
1622149113554677,9,22,11,6,52,17,0,-11
1622149113569873,-17,0,-14,7,-37,-11,-6,3
1622149113569873,-3,-23,9,-15,-12,-20,-26,-15
1622149113577181,-8,30,-14,-12,-30,15,29,-18
1622149113577181,-3,-10,-4,20,70,10,8,6
1622149113585355,13,-3,5,-8,-21,-9,23,0
1622149113585355,22,10,-18,11,25,15,-19,23
1622149113608652,-24,-15,11,10,-33,-20,51,-12
1622149113608652,-2,7,-3,-36,-43,-9,24,3
1622149113608652,1,-15,-6,15,66,-10,-6,63
1622149113608652,-1,-6,-5,13,-13,-11,-19,-36
1622149113614744,9,-12,-10,-23,-5,36,-15,-12
1622149113614744,3,9,4,10,18,9,-61,-21
1622149113622207,2,-5,14,6,3,23,60,21
1622149113622207,-7,-1,-1,-1,-19,-22,-11,-14
1622149113637229,6,-20,-5,-20,33,5,42,42
1622149113637229,2,32,-5,3,15,18,-16,-40
1622149113645210,-11,1,-8,-2,1,-12,-56,-50
1622149113645210,6,0,-7,-1,-23,9,25,25
1622149113660243,-16,-47,-4,-23,-41,-18,9,-5
1622149113660243,11,-1,5,14,15,-11,-19,9
1622149113660243,2,4,-12,-5,5,8,13,-28
1622149113660243,-4,8,10,27,57,-9,32,25
1622149113674672,13,-12,-4,-25,18,-11,-12,-5
1622149113674672,-5,-9,-12,-18,-25,-4,-8,40
1622149113682181,6,10,12,43,6,17,9,12
1622149113682181,1,-16,-2,-27,2,16,38,-33
1622149113696872,-1,26,-13,12,-25,-20,-43,9
1622149113696872,-2,-4,0,-30,-6,-5,5,-9
1622149113705028,1,-2,8,5,6,-4,21,30
1622149113705028,-7,12,-5,18,2,17,-11,6
1622149113719881,3,-1,-3,-3,31,1,-6,-9
1622149113719881,-9,-5,-7,-13,-57,-30,-36,-57
1622149113721190,10,13,15,19,30,20,76,31
1622149113721190,-5,-7,15,-30,-54,13,-15,-17
1622149113734712,1,0,3,19,27,-9,-44,-31
1622149113734712,-10,-18,-5,3,12,4,26,66
1622149113741710,7,-15,-1,-20,-64,-9,-65,-103
1622149113741710,-14,16,-13,-18,-21,-29,16,20
1622149113757237,5,14,11,41,20,43,35,8
1622149113757237,-2,-20,0,-25,-15,-13,-60,-22
1622149113764865,-2,-4,2,3,-10,-9,59,36
1622149113764865,8,15,-2,48,17,-10,-17,-5
1622149113779845,-1,-9,-9,-40,-44,6,23,-4
1622149113779845,-11,-2,-3,-10,52,12,-8,-29
1622149113781184,3,-21,6,14,-8,1,-10,13
1622149113781184,0,25,8,-22,15,13,12,-20
1622149113794430,2,0,-9,4,-36,-30,-8,33
1622149113794430,7,-9,3,44,75,3,19,0
1622149113810776,5,12,-14,-55,-34,-1,-12,8
1622149113810776,-10,-13,18,15,27,-2,26,51
1622149113819130,26,11,-1,-14,57,29,-23,-23
1622149113819130,-34,-6,22,21,-100,-31,32,3
1622149113824725,-3,19,-12,15,-1,37,-97,-24
1622149113824725,1,-14,-20,-23,2,-4,-85,-28
1622149113839799,0,15,45,-3,-68,8,94,22
1622149113839799,9,-14,-8,19,46,-13,17,25
1622149113847809,2,11,-3,13,30,-2,8,3
1622149113847809,-8,-15,-28,-60,-48,-11,-71,-39
1622149113853789,-16,-4,-5,19,21,24,-10,7
1622149113853789,1,-16,4,-19,-9,-13,25,-19
1622149113861853,-9,14,4,52,-8,6,16,-1
1622149113861853,6,-4,1,20,10,-10,-5,-10
1622149113877065,-11,-12,-15,-1,-10,-27,-18,15
1622149113877065,4,33,-10,-22,-51,-46,-5,-23
1622149113885405,-4,-7,33,-11,39,38,33,-20
1622149113885405,8,-13,9,78,-47,-22,-19,78
1622149113899877,-13,4,-13,-43,33,2,-36,-49
1622149113899877,16,6,-3,8,-13,-1,38,12
1622149113900876,11,-1,-2,-24,-19,-25,8,76
1622149113900876,-9,-1,6,20,-6,37,42,-35
1622149113913909,-5,-7,-9,-7,10,-29,-33,20
1622149113913909,3,28,-9,3,58,27,-5,-6
1622149113929901,1,-15,9,3,-57,-34,-9,-23
1622149113929901,4,-10,7,5,13,0,2,-6
1622149113938635,-9,-2,-21,-5,14,-2,-8,6
1622149113938635,4,-6,-8,-34,18,24,45,18
1622149113944595,3,20,14,36,-16,-19,15,10
1622149113944595,-6,-10,-18,-39,35,-9,18,-43
1622149113959778,3,26,13,28,10,33,52,62
1622149113959778,6,-46,-13,-5,-36,-33,-114,-69
1622149113960679,-10,0,-11,-16,12,-20,46,7
1622149113960679,-8,17,13,23,16,43,-11,7
1622149113974736,3,-24,-6,-20,-50,0,74,-43
1622149113974736,-2,41,16,23,-20,-22,-52,1
1622149113982205,2,-23,-31,-40,9,13,-73,-15
1622149113982205,-17,2,13,19,30,-6,34,14
1622149113996712,-1,-6,-10,-15,-29,5,-12,-31
1622149113996712,-6,-10,2,23,8,30,35,-8
1622149114004727,-3,-5,-8,1,38,-56,-38,-16
1622149114004727,13,4,-3,-1,21,2,27,26
1622149114019872,-11,-17,-17,-34,-61,-37,-25,14
1622149114019872,-10,0,27,44,88,44,-37,-9
1622149114020871,7,0,5,-13,-25,-3,56,37
1622149114020871,2,-2,7,0,-6,7,-1,-15
1622149114034735,19,-7,8,38,14,15,16,27
1622149114034735,-3,-8,-7,-55,-35,-22,-61,-41
1622149114041719,-13,6,10,52,-8,39,-4,-8
1622149114041719,-4,-18,-13,-65,-66,-36,-19,49
1622149114057965,18,22,-3,12,64,48,48,-1
1622149114057965,-14,-14,-11,-19,-66,19,72,31
1622149114064086,4,-7,-8,17,60,7,-23,9
1622149114064086,7,8,1,-15,-47,-34,-49,-20
1622149114080054,-7,2,14,31,26,-1,-38,27
1622149114080054,19,8,-11,18,5,-14,5,-20
1622149114081173,-26,-35,-15,-61,-29,2,-21,4
1622149114081173,5,20,4,22,9,14,17,-33
1622149114094292,-9,-3,-4,-29,-19,-29,-55,-24
1622149114094292,-3,3,7,18,6,30,16,2
1622149114102189,7,-6,4,-26,-19,3,17,0
1622149114102189,-17,1,-12,16,38,0,-25,21
1622149114117252,-1,-4,18,18,12,-13,-21,-11
1622149114117252,4,7,-13,10,19,19,42,-27
1622149114123905,-5,2,-12,-17,11,-22,-58,2
1622149114123905,9,6,-9,-36,-52,4,93,74
1622149114139371,0,-11,-6,32,52,17,-28,-16
1622149114139371,-2,26,3,-8,-3,-18,-56,19
1622149114147845,3,10,-2,8,-1,-18,37,4
1622149114147845,0,-9,-1,-8,20,10,-17,-22
1622149114154739,24,4,-13,-35,-29,-17,2,14
1622149114154739,-30,-13,18,44,21,-6,-6,-7
1622149114161878,-6,-12,-8,4,4,8,34,-21
1622149114161878,4,8,-4,3,-23,-29,-55,-70
1622149114177716,-11,12,-13,-19,-23,20,1,-3
1622149114177716,9,-16,17,-9,-30,-17,9,1
1622149114184738,-13,-6,-22,-57,-21,-8,-19,-26
1622149114184738,-9,-9,-1,-4,-11,18,50,42
1622149114216054,1,5,5,32,11,-38,0,-29
1622149114216054,5,-9,-11,3,10,-7,-8,31
1622149114217053,-5,33,20,14,38,-1,28,6
1622149114217053,6,-17,1,-21,-41,6,-9,0
1622149114218341,-7,0,-4,-18,27,24,50,9
1622149114218341,-5,-9,-6,-4,13,-14,-17,13
1622149114221363,7,-2,6,20,-26,-29,-27,-10
1622149114221363,2,5,11,-12,29,5,12,-1
1622149114236420,2,5,23,9,-20,-31,-22,18
1622149114236420,2,-2,2,6,-52,6,30,-8
1622149114243845,2,-5,6,11,40,2,-49,-24
1622149114243845,10,13,-13,-19,44,19,-7,4
1622149114259773,-21,-14,9,6,-87,-6,26,-21
1622149114259773,6,8,7,17,20,2,24,19
1622149114267916,-9,-4,-8,20,-25,-17,-92,-51
1622149114267916,9,9,-5,-34,39,24,83,31
1622149114274789,-5,-6,-7,6,-21,-3,-23,-3
1622149114274789,2,9,-22,-6,32,0,28,6
1622149114281769,5,-6,26,-17,1,21,-25,-34
1622149114281769,-15,7,4,65,5,-14,-45,-18
1622149114296827,7,-7,-11,-17,-10,1,40,55
1622149114296827,-8,-3,-2,14,3,11,-37,-16
1622149114303808,20,-3,-2,-35,-2,-31,-7,18
1622149114303808,-19,-23,17,61,29,22,66,3
1622149114319653,-8,2,-15,-20,13,-35,-77,13
1622149114319653,1,17,4,20,18,-11,-13,-33
1622149114327802,19,-2,-14,-48,-42,27,22,26
1622149114327802,-17,-10,-18,-11,5,-24,13,-21
1622149114342425,8,3,24,32,43,7,18,-12
1622149114342425,-12,-4,6,-26,-38,0,-10,21
1622149114343424,-8,2,-18,31,35,1,-4,4
1622149114343424,17,3,-6,8,-41,-15,-63,-53
1622149114357233,-22,0,-6,-16,42,25,70,43
1622149114357233,6,15,-6,-39,-17,-13,-17,-15
1622149114364365,-8,-3,7,23,42,10,39,18
1622149114364365,1,-32,-21,-46,-68,-5,-15,-23
1622149114379639,1,20,13,32,38,-20,-33,59
1622149114379639,3,2,11,-1,-49,27,47,-35
1622149114387674,-3,5,-9,29,57,-9,29,35
1622149114387674,3,3,15,17,-31,12,-7,-1
1622149114402666,9,-3,-15,-24,1,5,-20,-28
1622149114402666,-5,-14,-19,-24,10,-13,-16,-10
1622149114403625,-12,-3,-1,14,18,20,105,16
1622149114403625,6,4,-3,2,14,-19,-40,2
1622149114416625,8,0,-1,-4,-9,13,-64,-28
1622149114416625,1,-13,-16,-24,-3,-1,75,-1
1622149114424697,-17,-12,0,-14,-63,-21,23,-5
1622149114424697,-3,26,16,28,85,30,5,-1
1622149114439433,4,-21,15,-10,-53,-24,-14,-41
1622149114439433,-3,15,-7,39,40,2,-8,-3
1622149114447388,19,-8,2,-18,-45,26,25,24
1622149114447388,-7,11,-15,1,-24,-74,-66,-10
1622149114462345,-10,-15,12,23,29,27,60,30
1622149114462345,2,-7,-6,-27,16,2,18,6
1622149114463343,3,-18,-11,-16,-15,2,-21,1
1622149114463343,-5,13,4,14,22,23,17,10
1622149114476516,-4,-1,-4,-3,-50,5,-11,-92
1622149114476516,6,2,-17,-29,14,-16,-114,-1
1622149114492526,-1,6,39,15,-5,0,85,-9
1622149114492526,-5,-22,3,-38,28,26,-33,-20
1622149114499518,1,-16,-16,-6,37,-27,22,10
1622149114499518,3,33,16,30,-23,39,-23,-6
1622149114507801,9,6,-16,2,-69,-26,-74,-14
1622149114507801,-11,-11,-2,-21,1,-9,14,-1
1622149114522766,1,1,-5,13,-1,14,-2,-5
1622149114522766,0,-6,2,-11,21,-27,-6,9
1622149114522766,8,19,-3,-10,12,42,-19,-17
1622149114522766,-10,1,-2,21,-59,-7,58,37
1622149114537081,3,4,29,-8,27,2,16,17
1622149114537081,12,-13,-13,-2,3,-8,33,17
1622149114544070,-4,-4,29,43,22,10,-38,-8
1622149114544070,2,16,7,20,12,-17,18,15
1622149114559054,-7,-8,-27,-30,17,21,-9,-25
1622149114559054,1,-7,3,-11,-23,-17,17,-8
1622149114567031,0,14,-4,-17,23,27,-14,-11
1622149114567031,-4,-16,-9,-24,-2,-27,-25,-16
1622149114581968,1,-4,-7,7,-13,11,36,59
1622149114581968,-3,13,26,28,-14,-11,-20,-4
1622149114582962,-9,-35,-23,-21,1,-1,-62,22
1622149114582962,0,11,19,-19,50,14,37,-12
1622149114597246,32,22,-32,-56,-61,-1,11,-16
1622149114597246,-36,-4,17,40,10,14,-16,7
1622149114604737,-29,-23,-5,2,18,-20,45,11
1622149114604737,15,14,1,11,4,2,-32,4
1622149114619730,8,-10,5,16,-17,-15,-11,12
1622149114619730,-15,-21,-9,-26,27,21,7,-10
1622149114627011,4,14,5,26,7,-21,7,-5
1622149114627011,2,-12,-7,-21,-13,-12,-15,-4
1622149114642042,-4,15,-5,16,13,15,-16,12
1622149114642042,6,-8,10,57,21,12,-10,-26
1622149114643015,-1,12,-8,-5,-17,14,-12,19
1622149114643015,7,-25,-19,-27,-23,7,41,-11
1622149114658759,-6,32,25,36,15,-6,-19,9
1622149114658759,-2,-10,-7,11,-45,4,16,18
1622149114664745,11,6,-16,-31,-11,-10,2,-10
1622149114664745,3,8,9,37,37,17,-21,-6
1622149114679723,-18,-23,-19,-27,-10,-4,-18,-25
1622149114679723,8,-7,-6,-32,-19,-27,-14,35
1622149114686903,-21,-26,20,51,54,-1,58,-56
1622149114686903,14,32,-1,-10,-58,-14,-27,39
1622149114702832,2,-16,19,21,37,-10,32,7
1622149114702832,7,31,-7,-25,19,30,22,9
1622149114702832,-5,-11,-26,-55,-50,-7,-26,-42
1622149114702832,-6,-17,28,41,47,16,28,-52
1622149114717034,-4,13,9,-4,-6,-18,0,5
1622149114717034,10,-25,-15,19,5,-26,-48,-2
1622149114724033,-12,0,-6,-35,-3,-9,13,35
1622149114724033,-3,-10,1,33,6,23,-7,25
1622149114738969,0,46,-7,-25,-55,-30,-77,-58
1622149114738969,-3,-15,11,-33,-70,16,87,34
1622149114746970,14,10,8,38,21,14,-49,21
1622149114746970,-4,-23,-20,-71,-21,2,13,-21
1622149114771059,-4,-6,-21,48,25,-10,4,5
1622149114771059,10,13,31,-13,4,4,0,14
1622149114771059,7,11,-1,50,4,-38,1,-17
1622149114771059,-9,-8,-16,-13,-40,-6,25,-2
1622149114777058,-2,-21,-9,-4,11,10,-10,-1
1622149114777058,-7,15,-18,-42,-5,11,24,-32
1622149114784776,-2,-4,-1,34,25,-30,-48,7
1622149114784776,9,4,16,-9,5,4,17,15
1622149114799774,-3,-8,-16,-1,18,31,0,-1
1622149114799774,25,-5,-11,-2,-11,-51,59,-4
1622149114807970,-21,-9,7,-25,-31,35,18,20
1622149114807970,-6,12,13,23,14,-36,-64,-33
1622149114822855,2,5,7,14,-4,0,21,9
1622149114822855,-15,-21,-9,1,-11,5,-53,31
1622149114822855,17,6,6,5,9,-7,22,-41
1622149114822855,-1,30,6,-10,-9,0,-4,13
1622149114837249,-9,-15,-1,18,-39,-3,10,-7
1622149114837249,-1,-14,-5,3,30,-10,1,7
1622149114844232,0,5,-14,-26,-4,16,13,44
1622149114844232,-22,-25,-25,-27,-56,-27,-65,-81
1622149114859605,11,-5,9,-8,-1,-3,-5,3
1622149114859605,0,12,7,20,27,-1,-22,28
1622149114867676,1,8,7,13,-26,11,-33,-46
1622149114867676,5,0,2,-39,10,35,80,37
1622149114882891,0,-8,-16,4,43,-11,-34,-43
1622149114882891,-5,-14,-18,-25,-58,-29,-61,-12
1622149114882891,-13,35,36,7,-4,21,4,7
1622149114882891,11,-18,-4,41,28,-7,15,32
1622149114912883,-3,-1,-3,-53,-20,1,5,2
1622149114912883,-5,4,-9,-24,4,10,-2,-11
1622149114913881,3,-26,-2,19,71,-14,-57,-39
1622149114913881,-10,11,-3,15,-69,-9,63,16
1622149114918985,11,19,22,30,35,8,3,14
1622149114918985,3,2,-8,-8,-1,15,-20,-28
1622149114927893,-6,-15,2,-13,-6,-46,-15,31
1622149114927893,5,6,-21,-33,-41,-4,-27,-1
1622149114942889,-3,-12,11,54,12,22,29,22
1622149114942889,3,-3,-4,-39,11,17,30,0
1622149114942889,7,9,-12,5,5,-46,-16,15
1622149114942889,4,-18,9,10,-23,-2,31,21
1622149114957977,3,7,5,-8,5,-18,60,10
1622149114957977,-4,-6,10,54,-4,19,11,-12
1622149114963967,-5,40,-14,-31,-2,-9,18,9
1622149114963967,-5,-21,-4,8,16,6,-29,-36
1622149114979807,-2,9,-5,-44,-5,1,-14,21
1622149114979807,4,19,22,11,-20,-3,17,-30
1622149114987853,2,-13,-7,16,89,17,23,18
1622149114987853,8,8,2,12,-2,5,-4,43
1622149115002842,-26,-46,-2,-45,8,-93,-83,-85
1622149115002842,-11,26,-6,33,25,76,29,13
1622149115009801,13,7,7,-40,-59,18,5,-4
1622149115009801,22,3,-2,33,91,-16,-66,-2
1622149115016782,-25,-16,14,4,-69,16,73,9
1622149115016782,0,-6,-12,19,34,-23,-7,24
1622149115023761,-5,18,-4,-23,-44,9,86,-5
1622149115023761,-1,-13,-11,-19,32,3,-110,-5
1622149115040395,14,19,-13,-50,-28,33,110,11
1622149115040395,8,31,-1,31,27,-16,26,46
1622149115047407,6,-8,32,16,-67,16,-5,-14
1622149115047407,5,-11,-3,-41,-9,-4,-27,18
1622149115061237,-13,23,-9,25,38,33,3,-2
1622149115061237,-12,-39,-26,-48,-16,-67,-80,3
1622149115069880,5,-6,3,0,7,-40,0,9
1622149115069880,-8,5,7,19,-4,36,31,41
1622149115076997,8,-14,-4,23,2,-17,-26,-10
1622149115076997,-4,7,6,-2,27,12,-62,-21
1622149115084780,5,-8,-6,4,-41,5,4,8
1622149115084780,-10,-14,-27,-53,-42,7,14,-16
1622149115099806,4,4,-2,24,35,15,-3,17
1622149115099806,4,-12,15,17,-33,-14,14,9
1622149115107954,-4,-3,-2,8,32,0,-12,-5
1622149115107954,-3,19,23,27,-22,8,18,-7
1622149115122178,-3,-12,-8,-5,11,-1,31,-10
1622149115122178,8,-12,2,-15,-6,3,15,-5
1622149115129875,-11,-10,-4,-6,-15,23,-11,-26
1622149115129875,-14,2,-31,-34,4,-30,24,4
1622149115144929,8,9,48,46,13,33,-67,-2
1622149115144929,14,22,6,9,6,-25,-4,-4
1622149115145901,10,-5,-14,-33,-3,-2,52,40
1622149115145901,1,-9,0,-1,9,-9,-11,-13
1622149115158892,-6,5,-3,6,-24,-3,-20,3
1622149115158892,-3,-21,-11,-35,3,12,63,17
1622149115167873,1,20,-14,12,44,18,-31,-21
1622149115167873,-7,7,23,61,4,-21,0,-13
1622149115181837,4,-8,-27,-64,-3,4,-10,19
1622149115181837,0,-9,30,46,-5,24,12,-44
1622149115189807,-11,-5,-24,-33,0,-6,-36,-62
1622149115189807,-10,-9,18,38,-32,-24,5,-12
1622149115196763,7,23,-9,-41,-40,-32,-26,13
1622149115196763,-10,-3,-5,-7,31,26,-27,-10
1622149115203871,1,-24,-9,-14,-38,-3,-6,8
1622149115203871,13,15,9,4,36,9,48,-16
1622149115219571,-13,-11,1,4,-20,-16,-14,-5
1622149115219571,-4,-1,-10,-33,-25,-1,-1,-19
1622149115235431,-4,-14,22,59,35,-3,-8,39
1622149115235431,13,16,-4,-17,32,5,-38,-11
1622149115241796,4,-7,-2,8,7,5,48,4
1622149115241796,-15,1,12,24,-71,-27,-3,10
1622149115250440,4,6,-7,21,29,21,-8,-1
1622149115250440,3,-1,-8,-8,-1,11,6,5
1622149115264864,-9,-1,18,-8,-4,-21,-16,-5
1622149115264864,-8,-5,-20,-10,11,28,-21,-18
1622149115265888,12,-15,2,-6,-32,-10,23,20
1622149115265888,-16,8,1,6,29,2,25,11
1622149115279776,-3,3,8,26,15,6,-30,-11
1622149115279776,2,-9,-9,-32,-21,-7,31,-8
1622149115287964,-1,-1,1,10,-33,5,18,31
1622149115287964,4,11,5,-21,-21,-13,-31,-13
1622149115310872,12,-1,-13,32,35,32,22,-14
1622149115310872,-11,-15,-8,-22,-18,-36,-3,-11
1622149115311846,-8,-3,8,-21,-29,0,31,15
1622149115311846,27,-1,-6,49,-8,-8,-16,-5
1622149115325354,-25,1,-4,-34,-1,14,-17,-7
1622149115325354,0,-9,-7,-5,13,-10,1,0
1622149115325804,-9,2,1,-6,60,-10,-18,-25
1622149115325804,-2,-12,-16,-33,-80,-19,10,-6
1622149115339380,16,-2,32,22,-4,25,-11,-2
1622149115339380,-11,13,-23,12,67,10,37,28
1622149115347324,9,-2,1,27,-1,-18,-35,18
1622149115347324,-15,1,-15,-30,22,13,-43,-46
1622149115361878,4,17,-6,-5,-5,11,25,-14
1622149115361878,-13,-12,12,18,-26,-46,1,22
1622149115369886,12,31,-3,-16,6,2,-81,3
1622149115369886,-7,-24,-8,-21,-6,11,107,26
1622149115385431,-9,-11,-9,33,26,-12,-12,9
1622149115385431,15,9,23,-20,7,0,-16,-29
1622149115385779,0,-6,27,51,16,2,32,22
1622149115385779,-11,-21,-23,6,5,-31,-103,-4
1622149115399799,4,7,-3,-28,29,23,72,32
1622149115399799,18,10,-3,8,6,26,4,3
1622149115407286,-29,-14,-9,4,-20,-10,4,1
1622149115407286,-1,6,5,-46,-28,8,1,-1
1622149115422256,-3,-7,-25,-8,27,-28,-17,-7
1622149115422256,-4,-6,14,14,-9,16,-36,3
1622149115429877,-6,-12,-15,-24,-23,12,22,-26
1622149115429877,9,18,26,58,27,10,6,14
1622149115445429,-4,-4,-26,-49,-8,-40,-25,-12
1622149115445429,11,-8,-19,-58,11,34,-80,-7
1622149115446401,-4,-23,-7,2,-1,-41,8,-30
1622149115446401,1,29,13,45,-35,35,17,28
1622149115459776,11,6,18,4,-31,-18,-31,-2
1622149115459776,-13,-10,-18,51,63,2,30,2
1622149115467193,21,-11,-12,-84,-92,2,-36,37
1622149115467193,-13,26,8,-12,46,5,-9,-73
1622149115482201,9,-4,12,55,-49,-24,-2,33
1622149115482201,0,5,-16,-37,48,15,22,-10
1622149115490418,-12,-12,24,40,15,25,-22,-29
1622149115490418,0,4,-6,-39,20,48,-7,42
1622149115505096,3,-21,-16,-42,-9,-16,23,-7
1622149115505096,-6,-3,-1,22,-11,-39,-35,10
1622149115506251,10,51,5,63,72,7,59,7
1622149115506251,-6,-36,-22,-78,-103,-24,-17,-9
1622149115519778,-2,8,-2,17,-27,-13,0,-25
1622149115519778,4,1,8,37,14,37,93,33
1622149115526887,16,-1,-18,-60,17,-44,-74,-4
1622149115526887,-21,-9,8,101,28,-16,31,-2
1622149115541817,2,4,-18,-78,12,32,-47,0
1622149115541817,-3,-7,6,0,-51,0,61,-2
1622149115549795,-9,0,-3,-7,-21,4,18,-41
1622149115549795,0,8,-10,-20,-33,-32,-10,-3
1622149115565862,-5,-10,17,34,-4,32,0,-8
1622149115565862,10,12,7,14,26,6,1,-16
1622149115565862,-6,-10,-15,-9,-5,-6,-6,8
1622149115565862,6,-11,12,17,72,2,-15,20
1622149115578844,-5,1,-13,4,-24,6,-32,-34
1622149115578844,2,18,38,12,-39,-22,-9,8
1622149115587224,-4,-12,-11,-56,57,-8,47,12
1622149115587224,-2,-16,10,29,-30,29,-37,-35
1622149115601939,14,18,-2,3,26,-19,35,17
1622149115601939,-21,-9,-4,-13,12,-10,-39,-20
1622149115609842,-7,-6,8,42,4,30,4,2
1622149115609842,9,2,-3,-3,-25,-15,26,-19
1622149115625440,-14,-32,-24,-40,57,18,-6,-5
1622149115625440,38,3,0,-7,-25,-14,-37,27
1622149115625782,-36,27,5,20,5,36,-7,-42
1622149115625782,-2,-9,1,6,23,-34,22,14
1622149115639484,1,2,16,23,-65,-20,-45,7
1622149115639484,-5,-7,-29,-44,-13,38,44,-5
1622149115646810,4,-15,-10,-2,-4,-27,-23,3
1622149115646810,1,-9,-12,-17,3,-37,15,25
1622149115661868,-13,27,21,25,-7,-11,-6,-27
1622149115661868,-3,-8,-13,-16,0,0,-28,1
1622149115669879,7,9,10,10,-9,12,-74,6
1622149115669879,-6,7,6,23,12,-28,74,-17
1622149115685441,-3,-34,-22,-12,14,-1,52,26
1622149115685441,-4,39,25,-20,-43,-17,-9,15
1622149115685780,2,-4,7,38,25,6,40,-35
1622149115685780,10,23,5,-39,0,22,-114,2
1622149115699811,0,-18,-4,1,9,-4,36,40
1622149115699811,12,-3,-6,15,-8,-9,-10,-37
1622149115707293,-18,-3,-12,-32,19,2,29,0
1622149115707293,6,-13,-5,-18,-71,17,21,-26
1622149115721800,4,5,12,-1,42,-25,-24,-25
1622149115721800,12,-13,-17,14,6,-8,-27,26
1622149115729993,-17,-5,-6,-11,-25,14,24,24
1622149115729993,-5,-10,-9,-5,47,14,6,-3
1622149115745051,-4,4,-4,-37,-13,3,-17,-8
1622149115745051,-3,-4,1,-18,-27,2,11,-5
1622149115746045,18,6,5,54,-10,-25,-39,-4
1622149115746045,2,-8,-8,-16,52,11,37,40
1622149115759204,-11,30,27,51,-24,-4,10,-11
1622149115759204,-6,-2,-8,-17,18,-1,-15,-26
1622149115767316,-12,-30,-27,-19,-59,3,62,36
1622149115767316,23,12,31,13,19,23,-16,-18
1622149115791131,-4,14,-12,-11,-44,-80,-20,7
1622149115791131,-6,13,-9,10,54,6,-12,-9
1622149115792130,10,0,25,21,16,-15,-40,-29
1622149115792130,-23,-25,-27,-48,1,-6,72,19
1622149115804996,16,2,3,0,38,71,-4,-6
1622149115804996,-6,5,-1,13,-61,-35,-29,-24
1622149115805888,-8,19,46,68,56,-5,65,16
1622149115805888,-10,-14,-21,-63,-70,-12,-66,-2
1622149115819801,-1,-15,-7,22,47,11,-15,-5
1622149115819801,-1,21,8,16,20,6,46,18
1622149115826813,16,-1,-1,9,-15,28,-11,4
1622149115826813,0,6,6,-21,-10,-15,23,20
1622149115841806,-7,-15,-14,20,40,6,-28,-4
1622149115841806,-21,-22,5,-30,-102,-10,10,-5
1622149115849781,16,10,-12,-2,19,11,3,8
1622149115849781,23,16,19,65,22,9,-36,1
1622149115872742,-8,6,-11,-67,-24,-14,26,2
1622149115872742,-4,-14,14,78,62,-18,-56,-11
1622149115873717,-2,-15,-3,-26,-4,39,80,11
1622149115873717,-8,0,-7,1,9,24,-26,-46
1622149115879725,16,-5,35,38,-61,16,26,37
1622149115879725,-10,-13,-8,-2,29,-15,-31,-14
1622149115886706,1,6,-14,-71,-50,-31,1,6
1622149115886706,1,8,4,33,41,1,8,-17
1622149115910617,0,-2,-5,-56,-63,-11,27,11
1622149115910617,-29,-12,0,18,34,6,-47,-25
1622149115911615,22,54,-8,-18,-17,-19,36,6
1622149115911615,-2,-6,13,32,-27,21,16,22
1622149115924604,21,-8,-16,-36,-62,-1,-69,-16
1622149115924604,-23,-4,-15,-4,24,9,75,26
1622149115925577,-3,-17,-4,-4,31,-6,-35,-17
1622149115925577,-6,10,-6,-5,-6,-11,9,3
1622149115939564,2,8,-1,17,-11,15,11,-6
1622149115939564,9,-8,14,-8,-10,13,-20,3
1622149115946547,-9,-12,-39,-13,41,10,-33,-31
1622149115946547,-3,-6,12,-15,-60,-40,-48,-10
1622149115961481,-3,-13,-2,23,18,11,60,-2
1622149115961481,6,6,19,22,2,-32,11,12
1622149115969488,4,28,18,-9,-7,16,-3,8
1622149115969488,2,-15,-29,-26,47,7,65,8
1622149115984444,-32,-3,2,-2,-13,-8,-54,-6
1622149115984444,8,2,2,-7,9,-3,3,-8
1622149115985418,10,-5,11,30,-60,-20,-21,-18
1622149115985418,-12,1,-2,23,17,14,-33,-10
1622149115999405,-14,2,-5,0,-5,-14,17,1
1622149115999405,16,12,7,-7,7,16,12,30
1622149116006386,-10,-8,-14,-40,-12,-1,-66,23
1622149116006386,-2,-3,-5,26,15,-15,68,-36
1622149116021347,0,-7,3,9,31,-26,-16,19
1622149116021347,6,14,-10,-47,-45,13,18,-16
1622149116030321,3,-10,-10,-3,-34,7,20,12
1622149116030321,11,15,20,25,40,10,45,15
1622149116044286,-25,-18,-5,18,3,0,-82,-2
1622149116044286,10,-3,11,45,-6,3,11,3
1622149116052264,-13,-12,-33,-69,-14,-3,16,-11
1622149116052264,6,-8,-8,-16,9,-11,-16,16
1622149116059247,14,9,24,2,12,26,31,-6
1622149116059247,-1,8,-6,50,37,1,-16,-7
1622149116067223,1,1,5,-14,-12,-22,-61,-21
1622149116067223,-8,-7,-4,10,31,-6,12,26
1622149116082183,9,-1,-12,-31,20,30,12,-11
1622149116082183,-2,5,-4,-18,-61,-24,-50,-21
1622149116090162,1,-9,26,34,33,-8,34,6
1622149116090162,-6,-2,2,-11,-25,1,4,35
1622149116104783,3,0,-5,22,21,-27,-19,-28
1622149116104783,4,-29,-16,-28,6,42,95,30
1622149116112967,-15,34,22,14,20,-49,-68,-12
1622149116112967,1,-6,-9,-36,-27,29,62,6
1622149116119172,12,2,5,56,2,-42,-20,-7
1622149116119172,-14,0,-4,-28,-17,7,19,-10
1622149116126884,-3,-24,-27,-17,30,2,3,13
1622149116126884,7,11,49,57,17,-2,-45,7
1622149116150875,-17,-4,-27,-68,-79,33,4,-13
1622149116150875,1,-5,9,21,34,-11,12,-6
1622149116151800,6,-13,0,18,29,29,29,40
1622149116151800,-10,-17,-19,-41,-26,-61,-86,-45
1622149116163878,14,0,8,-4,38,15,27,14
1622149116163878,-4,35,11,11,-42,-7,59,34
1622149116172981,4,-23,-7,-13,-1,22,-51,-20
1622149116172981,-6,18,-14,56,5,-10,20,13
1622149116187945,3,0,31,12,35,-8,14,-3
1622149116187945,12,-17,-7,-21,-41,-16,-28,5
1622149116187945,-11,8,10,-14,-38,-4,1,-16
1622149116187945,2,-23,-30,-76,-4,23,-5,-8
1622149116201984,-4,4,-3,30,-17,14,16,13
1622149116201984,6,7,38,76,64,-7,-34,-14
1622149116210153,-8,3,-13,-70,-41,11,10,-2
1622149116210153,5,5,14,28,20,-26,-13,-4
1622149116224758,8,-7,3,38,-18,2,-7,9
1622149116224758,2,12,-37,-105,-8,13,-4,-10
1622149116232969,4,1,12,49,3,-11,17,-15
1622149116232969,0,-3,-6,-33,-8,18,74,45
1622149116247782,-8,1,-8,-9,3,1,-66,-25
1622149116247782,15,10,-1,9,-11,-17,-11,-42
1622149116247782,2,10,-6,-3,15,27,-52,-32
1622149116247782,-22,7,-7,-13,-66,-31,70,5
1622149116263185,-10,-19,-1,-18,62,24,57,27
1622149116263185,12,-10,3,20,-54,-14,-51,-21
1622149116269879,-8,-4,-27,-34,-13,3,-9,7
1622149116269879,7,10,33,38,42,35,-21,-7
1622149116284790,0,-6,3,6,-30,-15,3,0
1622149116284790,-21,-3,-14,-19,43,-9,4,5
1622149116292893,18,29,24,33,13,-5,40,21
1622149116292893,-11,-20,-24,-34,6,20,-43,-24
1622149116307970,-3,1,-6,-6,-31,-31,9,-15
1622149116307970,-3,-3,20,35,5,-3,-23,14
1622149116307970,9,-19,2,8,15,43,99,16
1622149116307970,-15,12,-13,-15,-16,-44,-117,-29
1622149116321968,3,36,18,9,8,-3,-38,-10
1622149116321968,-7,-4,4,26,14,13,45,13
1622149116329857,-11,-30,-17,21,-6,-14,-15,-18
1622149116329857,13,8,16,2,15,6,29,12
1622149116343935,-6,36,1,11,-1,22,59,-35
1622149116343935,-6,-11,-2,-49,-7,-37,1,2
1622149116352428,-2,1,-5,33,-6,-18,-10,8
1622149116352428,-8,-21,-6,-20,7,39,-21,-14
1622149116367931,4,-5,-12,18,8,-35,-33,30
1622149116367931,-3,-8,-15,-38,41,57,25,2
1622149116367931,-2,-1,-1,-27,-66,-4,5,-4
1622149116367931,4,-9,14,2,7,-15,21,-8
1622149116382331,-13,3,-1,-2,6,-2,15,-4
1622149116382331,9,-9,-18,-7,25,-6,22,1
1622149116390340,-8,9,9,-19,26,2,11,20
1622149116390340,4,11,-14,-3,-27,-31,-17,-6
1622149116404277,-11,-18,-6,-11,32,30,0,-15
1622149116404277,9,4,6,34,-25,-30,-6,2
1622149116420465,-4,3,-10,-23,5,5,-5,-5
1622149116420465,0,-7,14,57,18,26,28,2
1622149116436147,10,-1,-36,-83,-34,-52,-34,3
1622149116436147,-9,-2,20,48,9,26,15,18
1622149116436147,8,-9,-5,15,20,-6,65,-16
1622149116436147,-1,19,1,15,-4,-35,-128,2
1622149116442135,8,-17,-15,-43,-46,28,38,-14
1622149116442135,-11,-20,4,9,-16,-39,60,-58
1622149116450138,-7,47,21,-12,-23,3,-17,26
1622149116450138,16,-1,5,32,15,41,26,25
1622149116463874,13,-12,-17,-31,-4,33,-25,19
1622149116463874,-20,-21,-18,-49,23,-51,-21,-11
1622149116472905,9,-2,8,49,32,-26,-58,-8
1622149116472905,2,21,18,13,-44,17,2,-8
1622149116487904,8,4,6,11,19,-8,-6,31
1622149116487904,-2,-10,-17,-24,6,27,-29,-2
1622149116487904,-5,-14,4,-7,5,1,67,17
1622149116487904,-4,-5,-15,29,51,5,-58,-16
1622149116501897,3,-8,18,0,-56,1,8,9
1622149116501897,-2,6,3,15,-1,-39,-51,-29
1622149116509853,-7,-6,-9,-9,1,-6,-12,10
1622149116509853,6,-8,-12,-51,-19,-30,33,31
1622149116524811,2,19,17,61,61,19,49,-4
1622149116524811,-15,-11,-16,-46,-2,34,-35,-14
1622149116532978,11,15,0,6,-75,-20,11,18
1622149116532978,-1,-21,-30,-49,-16,-39,29,-9
1622149116547782,-18,-11,30,49,66,-6,-12,1
1622149116547782,18,5,-10,4,-84,0,-7,26
1622149116548773,6,14,14,21,-2,-9,-47,-6
1622149116548773,-7,-17,-9,-6,10,45,21,-16
1622149116561866,-6,-2,-16,-25,-40,1,8,27
1622149116561866,2,8,10,24,45,-21,-13,11
1622149116569864,20,-11,28,14,-26,22,35,4
1622149116569864,-34,3,-27,-78,-7,4,-40,-9
1622149116584772,4,3,13,78,12,15,25,-14
1622149116584772,-16,-2,-20,-47,-25,-21,-21,17
1622149116592779,14,-6,16,17,18,3,25,-15
1622149116592779,-10,-13,1,-11,-13,4,-79,-11
1622149116607994,5,31,-9,-28,6,-5,68,-6
1622149116607994,13,-1,18,42,22,25,70,28
1622149116607994,-13,-11,-10,-8,2,-42,-78,0
1622149116607994,16,-14,-3,-8,7,-10,-7,-9
1622149116622350,-11,6,-10,-19,-31,9,16,-2
1622149116622350,-1,6,7,31,14,1,-14,-15
1622149116629859,3,17,0,-4,65,29,86,51
1622149116629859,-2,-8,2,13,-72,-18,-49,-59
1622149116644253,3,-18,-24,-39,-10,-11,35,-18
1622149116644253,6,9,-2,-6,15,35,11,6
1622149116652252,-24,-19,-19,-8,14,-35,-67,-56
1622149116652252,4,19,38,47,16,31,48,18
1622149116667883,1,-3,-6,28,0,23,-12,17
1622149116667883,-5,-7,-13,-16,7,0,-56,-8
1622149116667883,9,-10,-10,-15,-33,8,-16,-12
1622149116667883,-9,17,-3,29,59,26,63,30
1622149116682359,-3,-3,13,-21,15,14,-59,-28
1622149116682359,-2,-22,-4,-14,-63,-41,46,21
1622149116697350,-1,6,-4,20,15,12,-40,6
1622149116697350,9,5,-11,15,-12,13,72,6
1622149116704305,3,-13,23,-37,17,-52,-21,23
1622149116704305,-15,-10,-4,11,62,27,-62,-83
1622149116712284,6,-15,-28,-61,-114,-50,-37,-19
1622149116712284,-1,39,38,50,34,12,19,-3
1622149116727818,-5,-16,-10,32,-17,-2,-52,33
1622149116727818,2,-5,-17,-58,-41,38,91,23
1622149116727818,0,-7,-18,-24,39,-2,34,23
1622149116727818,3,-22,5,43,14,-17,38,-20
1622149116741809,0,5,-5,-8,7,18,-41,45
1622149116741809,3,12,2,-10,-43,20,-2,7
1622149116749776,-10,-12,9,5,25,-3,10,-17
1622149116749776,11,4,27,5,-27,-19,2,29
1622149116764717,-7,-5,-4,17,42,-6,4,-28
1622149116764717,-5,-4,-24,-80,4,35,-11,-2
1622149116779827,-3,3,10,71,34,4,12,-31
1622149116779827,-1,4,19,5,-32,-12,-3,21
1622149116787901,10,-25,-11,-20,-2,-11,5,-13
1622149116787901,-10,26,17,63,15,0,-24,-14
1622149116787901,-13,14,-10,-29,4,-11,-1,31
1622149116787901,-5,-14,-22,-12,-15,-8,-43,-51
1622149116801895,11,22,13,13,17,10,44,-2
1622149116801895,-3,-8,-8,1,-17,-19,-51,-16
1622149116809850,-1,-11,25,12,46,48,55,45
1622149116809850,13,17,-21,15,-25,-81,-68,-12
1622149116823838,-20,0,1,-11,3,9,58,-21
1622149116823838,9,12,28,22,12,3,-38,-1
1622149116832969,-8,-4,-16,25,-5,16,18,-24
1622149116832969,1,-21,-38,-92,-38,35,27,21
1622149116847784,11,6,1,35,16,-17,-77,-9
1622149116847784,-1,2,1,0,-25,-36,80,15
1622149116847784,-9,5,5,15,22,3,-77,-15
1622149116847784,-5,-23,-8,-29,58,9,29,14
1622149116861887,-5,21,-26,20,-94,4,-7,-4
1622149116861887,6,-4,10,-38,51,-14,64,19
1622149116869805,4,-9,-2,4,-24,7,-49,8
1622149116869805,-3,-1,6,37,13,3,53,39
1622149116884807,1,-8,-9,-44,30,13,14,-84
1622149116884807,-12,4,5,28,-9,-24,-92,-28
1622149116899777,2,2,10,-5,-17,41,82,-18
1622149116899777,6,-5,-11,-45,-15,-50,-35,-18
1622149116909777,8,-4,12,56,10,-7,19,39
1622149116909777,2,7,7,-14,-20,31,-46,10
1622149116916112,5,9,-4,16,-3,18,97,-12
1622149116916112,-9,-5,-2,35,15,29,21,-7
1622149116938502,4,-13,-9,-37,-3,-8,-33,-2
1622149116938502,-21,-9,-24,-21,-30,-18,24,3
1622149116938502,-6,-4,17,-32,-23,-14,-55,-10
1622149116938502,18,12,6,47,24,21,27,16
1622149116953464,-15,-1,3,-64,-60,-8,-40,-43
1622149116953464,2,-8,-17,15,43,-16,2,-10
1622149116954461,3,-8,-16,21,23,2,-1,-3
1622149116954461,-1,3,9,-23,4,16,-9,-2
1622149116967238,-6,-11,-4,69,23,-8,-10,-5
1622149116967238,-1,2,9,-50,-44,-6,-11,-6
1622149116991754,-3,-9,-16,-22,-25,-23,-29,3
1622149116991754,-1,0,7,-19,29,27,14,-67
1622149116993333,-30,21,-4,-10,-61,-32,-60,20
1622149116993333,23,21,-2,11,44,26,49,28
1622149116994331,-15,-17,-4,27,-6,-17,-4,-23
1622149116994331,7,15,-14,-21,-10,7,-4,46
1622149117004321,2,-22,-3,-47,-8,-3,-69,-6
1622149117004321,2,23,6,70,19,25,55,-18
1622149117020283,3,-4,0,-26,19,8,-7,-12
1622149117020283,-3,-10,-1,-10,-40,-47,-45,5
1622149117027240,-3,-2,13,25,34,13,26,-7
1622149117027240,13,-12,-7,23,48,17,71,75
1622149117035539,-1,8,5,24,-12,-44,-46,-33
1622149117035539,-3,-10,32,3,-29,30,73,13
1622149117041767,8,14,-3,-6,-25,-36,17,8
1622149117041767,26,-9,6,20,-14,32,19,19
1622149117058051,-38,3,-19,-61,39,-11,-36,-12
1622149117058051,-8,-9,-14,-21,10,30,20,11
1622149117064041,7,15,18,52,-6,-33,8,16
1622149117064041,-5,-26,5,8,5,-6,-24,31
1622149117072434,28,8,5,46,-49,16,66,45
1622149117072434,-14,11,-20,-77,6,-63,-59,-8
1622149117095950,4,1,7,30,5,47,59,37
1622149117095950,-3,-11,-9,-26,-57,-60,-60,-15
1622149117096972,5,-12,10,-26,-4,2,15,18
1622149117096972,-11,6,-6,28,10,21,10,-6
1622149117118656,-11,-12,6,26,23,-29,-28,-17
1622149117118656,-4,9,-17,-2,-11,24,31,-7
1622149117118929,-4,1,-3,-23,-16,7,-16,-12
1622149117118929,12,-9,2,82,20,-4,-45,-17
1622149117124860,-1,-17,-38,-123,-14,44,73,71
1622149117124860,-12,7,15,54,-13,-17,-42,-59
1622149117132998,11,30,5,41,40,-1,-13,-13
1622149117132998,24,-4,7,-22,16,24,-99,-28
1622149117146814,-31,-8,-10,14,-61,1,82,-13
1622149117146814,2,-15,7,13,5,-2,71,32
1622149117155499,-10,-41,-43,-70,35,2,-3,-11
1622149117155499,-10,48,3,36,12,12,-15,-41
1622149117169882,19,0,14,-3,15,16,-31,-10
1622149117169882,-9,-8,-1,-44,-29,-41,-32,-15
1622149117171313,-1,3,16,41,-59,11,-13,-19
1622149117171313,-7,-20,-7,-44,17,-1,43,16
1622149117184859,5,-8,-18,-4,8,-19,-75,-25
1622149117184859,-11,19,19,15,9,20,6,5
1622149117192877,9,-11,-1,31,21,-16,40,28
1622149117192877,-26,-6,-15,-34,-40,-9,41,3
1622149117216199,4,8,-2,17,34,-18,-38,-7
1622149117216199,8,-12,-1,-4,37,14,-19,6
1622149117216199,6,10,-2,-17,13,1,-18,-22
1622149117216199,0,-35,-1,34,-29,4,16,19
1622149117229883,1,44,8,-9,41,-12,38,-4
1622149117229883,5,-8,-7,-32,-55,-19,-62,-33
1622149117231325,12,5,-12,-9,-3,5,58,26
1622149117231325,-18,6,58,66,-1,-12,-72,5
1622149117260695,-11,-23,-16,-60,67,7,36,10
1622149117260695,0,-14,-24,21,-22,15,-4,-67
1622149117261693,-10,36,23,-26,-54,-31,-5,5
1622149117261693,3,-11,-22,-5,21,-7,-34,19
1622149117267349,8,-5,24,64,-27,0,99,-24
1622149117267349,-4,2,6,-49,48,-5,-42,11
1622149117275003,-21,-6,-17,20,31,-2,-27,-50
1622149117275003,6,4,-27,-35,-53,-26,53,17
1622149117289874,3,11,40,62,6,35,-47,14
1622149117289874,4,-5,6,-41,-13,2,16,21
1622149117297855,15,-2,8,30,45,-17,-29,15
1622149117297855,4,-13,-23,-30,-51,1,15,-14
1622149117304827,-14,-6,-19,-38,-26,-26,-85,-22
1622149117304827,4,0,7,30,9,19,67,32
1622149117312858,-2,0,17,-5,-7,4,-36,12
1622149117312858,9,7,4,0,2,5,33,0
1622149117336106,4,-19,1,26,19,3,-7,-5
1622149117336106,-18,3,-15,-2,11,-12,-59,-7
1622149117336106,4,-2,6,-14,9,40,30,16
1622149117336106,-8,33,-4,-35,-21,-22,1,-8
1622149117350097,8,7,-1,6,-8,8,37,32
1622149117350097,-10,-13,-16,-48,45,-18,-22,-62
1622149117351079,-4,-6,15,70,8,4,-3,-37
1622149117351079,2,-16,3,6,-17,-1,-17,35
1622149117388874,1,8,-17,-21,-6,10,27,19
1622149117388874,6,13,4,18,9,-2,15,49
1622149117389871,-7,-14,-13,-55,-33,8,-91,-45
1622149117389871,8,-5,-11,10,19,19,83,-25
1622149117390868,-16,-6,-7,-34,-40,-7,-1,3
1622149117390868,-4,-3,16,53,21,1,-12,-9
1622149117394858,-15,-9,-16,-63,-5,-6,13,16
1622149117394858,11,15,6,13,-38,24,-53,-1
1622149117409817,2,3,-9,-13,41,-13,-37,-40
1622149117409817,6,3,21,42,-43,12,19,33
1622149117411100,-12,0,-20,5,9,-33,4,-13
1622149117411100,-4,-9,39,27,59,29,11,-10
1622149117424864,5,-6,-7,-23,-6,0,20,-32
1622149117424864,-1,6,-6,-31,-70,-10,-118,17
1622149117432429,7,8,13,11,3,-17,54,19
1622149117432429,-7,-5,-18,-44,-12,-21,21,59
1622149117456236,-4,-1,13,84,25,4,-25,-51
1622149117456236,-14,-5,-23,-54,-2,22,-14,-28
1622149117456236,26,-10,4,-11,-20,7,46,42
1622149117456236,-8,5,8,41,35,-8,-16,-7
1622149117469877,1,-3,-10,-35,-22,-4,25,20
1622149117469877,10,-15,0,-24,-48,-2,46,1
1622149117471317,-16,21,-19,26,41,-3,-2,30
1622149117471317,10,3,27,-16,-4,0,-29,-18
1622149117484833,10,-6,-1,-7,69,15,26,20
1622149117484833,-1,-24,-17,8,-28,-18,35,0
1622149117492893,-2,23,-2,7,-24,1,-26,-7
1622149117492893,7,6,-6,8,-2,2,-18,5
1622149117507848,-13,-8,-4,-23,-15,-5,-13,15
1622149117507848,7,8,5,-11,34,-34,35,26
1622149117514835,1,-6,-2,26,-60,0,5,10
1622149117514835,21,10,-14,-18,52,11,-35,-41
1622149117530176,4,6,25,61,-26,-7,28,38
1622149117530176,15,8,-3,10,17,5,-23,-15
1622149117531159,4,-15,10,-11,19,6,96,4
1622149117531159,-35,-18,-26,-17,-41,-13,-78,-1
1622149117545860,3,23,14,-19,-8,2,-46,-41
1622149117545860,1,6,7,29,-25,26,20,-7
1622149117552867,2,-5,-8,-14,2,-26,-32,-12
1622149117552867,-11,-18,-12,-31,17,3,8,-5
1622149117575952,-2,-10,-10,-53,-8,-17,12,9
1622149117575952,-13,9,7,79,30,17,-19,0
1622149117575952,3,-8,2,-36,-11,11,-40,18
1622149117575952,-14,-6,-9,21,-19,-27,42,-18
1622149117589993,11,-10,-16,-24,-26,-25,-3,13
1622149117589993,0,8,5,-13,32,14,17,-34
1622149117590966,1,-27,5,10,-17,-13,30,44
1622149117590966,10,30,0,32,24,13,-72,-13
1622149117612823,-1,-4,-11,-6,-3,1,31,0
1622149117612823,-7,6,9,-19,7,6,27,-5
1622149117613820,8,-32,-1,-5,51,0,-32,-12
1622149117613820,-18,27,12,6,-6,5,15,-10
1622149117626886,7,0,5,28,-56,4,7,5
1622149117626886,-7,-13,-32,-39,54,6,-31,2
1622149117634902,-13,11,1,10,-14,-17,-69,-27
1622149117634902,16,-8,3,-16,19,17,98,26
1622149117649859,-6,-3,-1,33,25,-1,-15,13
1622149117649859,-2,-6,-10,-47,-31,-6,27,14
1622149117650835,5,6,4,-14,-4,-15,7,12
1622149117650835,0,-17,-2,53,12,-5,3,6
1622149117664796,1,-12,5,-21,13,-2,-89,5
1622149117664796,9,22,25,13,-37,13,24,14
1622149117673008,-5,-4,-23,-37,16,10,26,-10
1622149117673008,-3,-7,-13,11,15,9,-10,28
1622149117695790,13,-20,-2,-6,-37,-18,51,3
1622149117695790,-15,5,-2,-20,9,7,-80,-32
1622149117696789,-4,5,34,27,28,17,2,37
1622149117696789,-13,-3,-7,-11,-21,-30,3,-48
1622149117709774,13,1,-15,-30,-7,41,-23,-40
1622149117709774,-24,1,-6,11,-4,-22,21,6
1622149117710750,12,19,-7,3,-25,23,35,-2
1622149117710750,0,-8,22,-8,-37,-8,-9,18
1622149117732985,-14,-15,-14,21,42,22,-3,-13
1622149117732985,1,12,-15,-23,-12,-61,6,30
1622149117733923,-7,-10,13,7,1,13,-29,-2
1622149117733923,8,2,11,-29,-8,24,-8,-17
1622149117746910,-12,27,-16,-48,-37,-35,-20,-7
1622149117746910,20,-4,21,71,89,44,89,35
1622149117754759,-15,-7,-7,-37,-58,-2,-5,-49
1622149117754759,6,-13,-8,7,29,-27,-37,7
1622149117769886,-8,-7,3,16,59,0,-34,-12
1622149117769886,4,10,-13,-19,-92,-17,-31,1
1622149117771345,8,0,8,34,20,-6,18,-22
1622149117771345,-26,-2,-3,-21,1,-12,8,-3
1622149117784813,10,-1,1,8,15,0,11,7
1622149117784813,-12,-9,-10,-28,-8,-16,17,-13
1622149117792790,2,9,26,53,-56,-4,-56,-27
1622149117792790,3,-4,-9,-8,15,9,79,56
1622149117807366,1,4,0,6,41,-5,6,19
1622149117807366,2,-12,-1,-3,-10,-9,3,-8
1622149117814860,3,1,-23,-14,28,11,-68,-7
1622149117814860,-15,-27,4,-36,-31,35,81,-7
1622149117829831,3,-2,-1,21,30,-23,-52,-32
1622149117829831,-4,29,10,2,11,3,1,-31
1622149117830857,3,2,-2,-15,-6,-4,74,52
1622149117830857,6,11,7,20,-17,-40,-42,-26
1622149117852822,-12,-33,-5,-16,-4,54,75,34
1622149117852822,6,-12,-6,16,7,-24,-39,9
1622149117853794,-11,12,19,55,-23,-7,-38,-21
1622149117853794,8,-7,-15,-35,30,-9,1,7
1622149117867356,-2,12,5,12,-21,-5,70,19
1622149117867356,-4,-4,12,33,12,17,-91,-50
1622149117875532,14,-10,-19,-38,59,-4,36,12
1622149117875532,-5,19,6,26,-45,-13,-26,-24
1622149117889896,6,7,10,-42,-50,1,-7,22
1622149117889896,7,-18,-14,-9,38,16,-12,-23
1622149117890869,-9,-17,-7,-32,-32,2,-31,-1
1622149117890869,6,51,-8,1,20,-18,-23,-7
1622149117904504,-1,7,30,75,17,49,-4,-3
1622149117904504,10,2,-14,-70,-65,-30,66,31
1622149117912800,-11,2,21,46,9,16,16,-9
1622149117912800,-5,-19,-10,-37,-3,9,12,-15
1622149117926836,3,-11,-3,49,7,-14,-54,11
1622149117926836,-4,1,3,-10,31,-24,-3,-20
1622149117934813,-6,-9,-26,-2,-60,-14,23,-10
1622149117934813,5,-8,16,2,-2,4,-8,0
1622149117949838,5,3,17,52,25,-4,37,38
1622149117949838,11,-17,-33,-76,5,-6,6,26
1622149117958077,-31,4,1,24,-12,14,7,10
1622149117958077,18,2,14,48,-38,-22,-46,-30
1622149117973683,-2,-2,-17,-69,-22,-7,4,-9
1622149117973683,-12,-2,3,36,17,14,0,2
1622149117974523,9,-14,-6,-17,-1,-24,-38,-27
1622149117974523,-1,-19,-9,-41,35,31,95,45
1622149117987401,-6,24,7,10,-15,-6,-25,-15
1622149117987401,-5,1,-7,7,19,-12,1,7
1622149117995382,16,9,18,-19,0,-15,-37,-20
1622149117995382,-3,-30,-9,20,10,1,58,28
1622149118009117,19,9,-5,-27,-5,-6,-36,7
1622149118009117,-11,-3,24,83,7,16,3,-18
1622149118018072,5,5,-23,-48,6,5,16,4
1622149118018072,-7,-1,1,-37,19,-21,-38,-20
1622149118024919,8,-7,-7,31,-40,-31,-15,-18
1622149118024919,-5,0,-2,-2,4,22,0,28
1622149118033016,-1,6,10,0,36,-12,-3,0
1622149118033016,-2,-3,-11,-18,13,38,-3,-4
1622149118046810,-12,-8,-13,-38,-15,-27,30,-7
1622149118046810,-2,-18,-5,-2,-28,-4,-8,-4
1622149118055508,-2,10,-5,-2,21,-4,19,15
1622149118055508,2,13,4,18,-23,7,-13,1
1622149118069877,3,-25,-5,-15,23,9,-20,-6
1622149118069877,9,30,4,-4,2,28,86,31
1622149118077858,-6,-22,-4,34,-4,-30,8,14
1622149118077858,0,18,3,-13,-16,-9,-64,-39
1622149118091820,-9,1,11,32,-12,0,20,-39
1622149118091820,2,-13,-14,-37,-16,-28,-51,-8
1622149118100796,23,-4,-1,-1,56,32,36,27
1622149118100796,-25,-15,-10,36,-54,-6,16,6
1622149118108775,-4,22,-6,-10,68,-14,9,6
1622149118108775,19,-1,38,10,-57,10,-29,-47
1622149118114759,-4,-7,-24,-16,-3,13,6,41
1622149118114759,-1,12,7,52,24,-12,-38,15
1622149118129888,-23,-14,-22,-92,-47,17,38,3
1622149118129888,5,5,17,18,9,0,0,-24
1622149118137895,6,1,-8,-9,11,-5,-33,-32
1622149118137895,-1,-4,4,11,-14,9,-9,1
1622149118152839,3,-17,13,-8,-7,15,-5,15
1622149118152839,-4,23,10,39,9,-18,-9,2
1622149118153836,-18,-6,-1,-1,-28,14,102,35
1622149118153836,15,-1,-9,-30,49,13,0,4
1622149118167392,17,17,7,17,5,-19,-23,14
1622149118167392,-26,-33,-13,-23,-26,-21,22,-15
1622149118175625,6,29,14,-8,-26,47,-30,47
1622149118175625,-1,2,-18,8,31,-35,-75,-56
1622149118188890,0,-2,-2,7,-53,8,65,-7
1622149118188890,6,-10,-9,-6,60,35,38,32
1622149118204847,-9,3,6,34,-11,3,20,-5
1622149118204847,-1,-14,7,22,19,-21,-61,-28
1622149118228973,11,33,-2,-64,3,12,-4,14
1622149118228973,-16,-9,-3,7,-27,-1,21,5
1622149118229775,-14,-9,-8,-2,5,-13,-36,-62
1622149118229775,10,3,9,13,16,10,66,30
1622149118231000,-10,-1,0,-9,-36,-19,-81,-22
1622149118231000,3,5,-9,28,1,21,5,16
1622149118234688,0,-14,-4,-18,18,-29,-36,-8
1622149118234688,-1,26,19,54,-12,5,53,27
1622149118249879,-13,-1,-6,-28,14,30,18,-32
1622149118249879,19,23,-2,-23,2,-12,-61,23
1622149118257998,28,4,0,7,-9,-18,-7,-27
1622149118257998,-31,-26,-3,3,-33,35,-5,8
1622149118272445,11,-21,-12,-1,12,-21,56,33
1622149118272445,-18,12,1,23,42,-5,-83,-32
1622149118273444,0,-5,-12,-54,-6,-10,27,22
1622149118273444,17,14,21,38,-40,-10,57,2
1622149118287374,-2,-19,-24,-18,64,7,0,50
1622149118287374,-2,-3,12,-3,-57,-7,-23,-3
1622149118294890,2,-1,1,12,5,7,3,10
1622149118294890,-5,-9,-18,-40,-22,-10,4,-4
1622149118309849,-22,-7,-11,0,33,8,-55,-1
1622149118309849,2,-2,31,35,10,-10,-5,-8
1622149118316830,-10,9,-13,4,4,3,2,-45
1622149118316830,0,-13,-12,-70,-26,-3,12,29
1622149118332787,9,4,14,61,-4,-6,-17,-21
1622149118332787,-1,0,-17,-59,47,-21,-57,-22
1622149118333785,-15,-7,1,51,7,32,47,-13
1622149118333785,17,-7,-10,9,7,-10,-15,7
1622149118346455,17,-22,-9,-23,-16,-15,22,-7
1622149118346455,-27,15,15,33,1,5,21,-3
1622149118362547,3,6,10,-19,19,-16,-52,12
1622149118362547,-3,-8,-26,-28,7,24,3,15
1622149118370829,-5,-4,18,13,-14,12,48,-13
1622149118370829,36,31,11,46,-7,22,36,21
1622149118377816,-13,-12,-8,-26,-17,-22,-21,-10
1622149118377816,6,2,6,-14,-38,-2,21,26
1622149118392362,1,9,2,13,31,11,-13,2
1622149118392362,-12,-41,1,6,-10,16,-6,-48
1622149118393370,-3,42,8,-11,8,-6,-80,21
1622149118393370,4,-7,-4,-18,42,3,18,-7
1622149118408330,-12,6,-5,54,-65,-32,-7,-8
1622149118408330,-1,-24,-18,-58,11,-3,13,15
1622149118415308,2,1,8,13,2,31,-54,6
1622149118415308,-8,-2,7,-3,-6,-14,62,-52
1622149118429271,-15,2,-4,-16,16,-10,-62,-17
1622149118429271,5,2,-7,29,37,-24,41,15
1622149118445251,-4,-13,-1,-18,-78,-22,26,-31
1622149118445251,8,11,3,-33,94,42,-26,29
1622149118452999,7,1,-3,68,21,16,31,12
1622149118452999,-8,-9,-14,-5,-15,-22,-18,-3
1622149118453834,9,-1,5,-8,0,37,96,48
1622149118453834,-15,-5,-4,-38,-18,-50,-68,-60
1622149118467405,5,15,7,3,-30,37,11,6
1622149118467405,9,-21,-1,-7,-20,-15,3,10
1622149118483067,-7,-3,-6,16,35,14,4,-6
1622149118483067,-15,8,8,-5,-9,23,35,32
1622149118498741,-6,7,1,-36,-3,-25,7,-4
1622149118498741,-2,-9,1,22,-13,3,20,8
1622149118498741,7,-19,-14,25,9,6,-21,-53
1622149118498741,20,-10,-20,-37,-69,-15,27,33
1622149118512366,-25,-11,4,-4,16,-11,-1,-23
1622149118512366,-16,20,-4,-36,-8,29,-30,8
1622149118537455,9,8,22,33,10,-34,27,2
1622149118537455,2,6,1,2,23,12,-20,-10
1622149118538869,-8,-12,-5,14,-20,-8,-3,-6
1622149118538869,-7,11,-3,-25,-53,-35,11,-6
1622149118539868,-6,-3,-4,-14,57,33,-71,-31
1622149118539868,7,-2,16,75,-11,-63,29,51
1622149118549887,-1,-17,-1,-95,-11,60,-26,-19
1622149118549887,6,11,4,32,33,-21,27,42
1622149118556853,-4,-9,3,-5,-24,-33,-33,-29
1622149118556853,-7,33,-1,18,-16,17,24,-4
1622149118573057,33,-4,-11,-1,79,5,-5,3
1622149118573057,-11,-28,-2,-19,-69,-3,26,90
1622149118573876,-13,5,5,13,33,-12,54,-3
1622149118573876,12,-5,-8,-24,1,-11,-46,-23
1622149118587881,-6,14,14,29,-6,-5,17,1
1622149118587881,13,8,29,40,54,17,-45,10
1622149118609775,-6,-8,-1,26,-49,-17,20,3
1622149118609775,-8,-17,-11,-15,1,-14,-61,-7
1622149118619776,-4,12,-6,-62,31,-15,85,23
1622149118619776,9,-15,-16,8,-63,33,-34,-60
1622149118621090,-8,2,-2,-1,9,4,10,-19
1622149118621090,13,10,9,14,-19,-23,-49,-3
1622149118640922,-16,6,-1,26,-10,20,-2,7
1622149118640922,-11,-20,-11,-10,16,-14,53,-15
1622149118640922,3,7,-1,-26,-44,11,-19,-27
1622149118640922,1,22,7,54,44,29,53,14
1622149118656806,-4,-8,2,-6,-22,-55,-71,-29
1622149118656806,-2,11,-13,-48,7,37,17,-19
1622149118657804,-9,-18,-11,-33,-11,-2,-13,1
1622149118657804,1,-8,-3,-6,8,16,10,42
1622149118669840,-5,8,21,47,-32,-39,-28,-84
1622149118669840,4,2,9,23,22,-58,-3,24
1622149118677857,3,-5,-23,-12,-38,-32,11,3
1622149118677857,-4,-3,-14,-62,-23,31,-22,-48
1622149118692817,-1,-11,2,28,23,-16,40,24
1622149118692817,2,7,-10,-29,-25,17,-51,9
1622149118693789,6,10,20,18,59,0,5,21
1622149118693789,-11,-10,5,48,-47,4,43,-18
1622149118707391,7,-20,-3,-51,3,-18,-95,8
1622149118707391,1,15,12,40,32,50,10,-6
1622149118723044,11,8,6,4,-25,-24,6,11
1622149118723044,-5,-6,-14,-30,7,-18,2,-12
1622149118729828,23,2,-3,10,-17,13,-19,-3
1622149118729828,-27,-11,-15,-7,42,-22,-97,-1
1622149118738076,6,-13,1,-39,-52,40,110,39
1622149118738076,-10,-5,-5,18,52,19,-24,-4
1622149118760697,9,-11,-24,-11,-34,17,12,25
1622149118760697,-3,2,-2,-26,-42,-4,-17,-28
1622149118761694,-8,20,12,23,36,-5,-27,27
1622149118761694,-3,-7,17,-43,-5,-31,-21,0
1622149118767334,0,24,7,70,20,22,38,44
1622149118767334,9,-5,-9,-15,25,-10,-17,-38
1622149118775787,-2,-7,-3,23,-25,5,0,-9
1622149118775787,12,-8,11,-38,14,58,33,1
1622149118805799,-17,-3,-1,-13,-14,-51,-24,10
1622149118805799,1,-9,-5,11,13,12,62,-8
1622149118807755,13,13,0,-16,-40,-10,-33,-29
1622149118807755,-23,-2,-4,32,20,-9,22,43
1622149118811771,3,3,5,1,5,4,-43,-52
1622149118811771,9,7,-9,-2,5,1,34,-7
1622149118820720,9,-21,-7,-25,-54,-7,16,12
1622149118820720,-12,16,-11,32,52,-9,-24,3
1622149118826837,-3,0,12,-31,-55,14,7,-6
1622149118826837,-8,-9,-21,-17,-49,-26,7,-11
1622149118835839,-3,6,6,23,76,13,-21,7
1622149118835839,7,-8,15,32,6,-1,-27,-28
1622149118849831,-10,-4,-21,-35,-17,-10,18,13
1622149118849831,1,6,-1,-6,19,16,-1,-7
1622149118858805,0,0,0,-3,-32,-7,-9,7
1622149118858805,3,-7,-13,-21,19,-5,-10,-6
1622149118880844,-2,5,2,11,-3,8,14,-8
1622149118880844,5,-2,7,11,-9,-6,12,13
1622149118882813,-9,-7,-20,-11,21,2,-17,-2
1622149118882813,4,0,16,15,7,-5,0,-11
1622149118886802,-2,-1,0,1,-42,13,9,4
1622149118886802,-2,-1,3,-6,1,-7,-5,-2
1622149118895881,-7,-6,-16,-36,8,-9,-9,0
1622149118895881,1,0,21,37,-19,-11,-12,-14
1622149118909774,-2,-1,0,2,-20,7,8,12
1622149118909774,2,1,0,-7,5,7,7,4
1622149118924918,-1,0,-10,-11,21,-5,-4,-4
1622149118924918,4,-3,-6,-18,-41,0,2,1
1622149118932428,-3,-3,-6,32,44,2,1,0
1622149118932428,0,3,12,-8,15,-5,3,-1
1622149118941432,-6,-6,-19,-9,0,-2,-9,-2
1622149118941432,-2,-3,7,-8,-16,6,-5,-6
1622149118946419,2,1,16,27,5,-2,6,2
1622149118946419,-2,1,-6,-5,31,9,1,-1
1622149118961524,-3,-2,-2,7,23,1,-3,-2
1622149118961524,-1,-5,-16,-24,-39,-20,-10,-5
1622149118969872,-3,-4,-6,-9,4,5,1,-7
1622149118969872,4,2,9,14,-16,6,5,5
1622149118978137,3,4,14,15,33,7,0,5
1622149118978137,0,-1,-8,1,-56,-3,-9,-11
1622149119000837,-4,-3,-5,-16,55,-3,4,2
1622149119000837,-1,-2,-1,-13,-5,-5,-2,1
1622149119002832,-4,-2,4,2,-43,-8,-4,-4
1622149119002832,0,0,-12,6,38,4,-2,-6
1622149119007387,1,6,20,13,-18,-1,-2,-2
1622149119007387,2,1,0,-9,-60,-3,2,1
1622149119016452,0,-3,3,25,127,10,0,-1
1622149119016452,-5,-2,0,-12,-32,0,-1,1
1622149119038716,4,3,-3,3,70,4,1,0
1622149119038716,-4,1,1,22,-31,-2,1,-2
1622149119039939,1,-4,-2,-16,-5,-2,-4,-1
1622149119039939,-5,-1,1,1,-7,9,6,6
1622149119061334,-14,3,-10,-1,25,0,-3,-1
1622149119061334,9,-6,8,46,-62,8,0,-14
1622149119063331,0,26,6,5,84,7,6,7
1622149119063331,2,-10,-12,-62,-57,-12,-3,1
1622149119083829,-2,-9,-16,-34,-8,-24,-13,-11
1622149119083829,-4,7,4,14,71,11,5,5
1622149119085826,-2,-6,5,10,-69,0,-1,-1
1622149119085826,5,-1,2,29,64,10,6,-3
1622149119089840,-1,6,-1,-3,-57,2,3,1
1622149119089840,-7,-26,-7,-17,8,-11,-7,1
1622149119098157,3,1,2,16,5,0,-1,-6
1622149119098157,-3,0,-18,-31,12,-10,-2,-1
1622149119111507,5,1,7,3,-46,11,6,6
1622149119111507,-1,3,-1,-2,91,-2,-1,0
1622149119121411,-3,-11,-7,-6,2,-8,-9,-9
1622149119121411,-4,4,-2,20,-2,-4,-2,0
1622149119136250,0,4,-4,-9,-15,1,1,2
1622149119136250,6,5,1,-21,10,7,7,2
1622149119137278,-3,-3,6,9,-70,-2,-1,1
1622149119137278,-4,-15,-7,-10,16,-11,-12,-7
1622149119158751,2,-6,3,12,34,10,4,-2
1622149119158751,-3,17,-4,-25,-16,-11,-2,2
1622149119159651,0,-2,15,-6,-6,-2,2,6
1622149119159651,2,5,2,26,14,5,2,0
1622149119172408,3,-3,-2,5,-39,-3,-3,-4
1622149119172408,-4,3,-11,-23,-46,-5,-1,1
1622149119180857,1,-13,5,9,2,-1,-2,2
1622149119180857,4,8,2,10,9,6,5,0
1622149119202955,-1,-4,-7,28,38,-11,-9,-4
1622149119202955,6,-4,17,16,0,7,1,4
1622149119204950,-9,-1,-15,-26,-40,-5,-1,-6
1622149119204950,0,-3,8,-7,-6,-7,-5,-4
1622149119209000,0,0,-2,-3,-5,4,6,5
1622149119209000,-8,-8,-7,4,-6,-5,-5,-6
1622149119218654,2,9,-6,-5,9,-4,-2,-6
1622149119218654,2,0,3,0,16,7,4,5
1622149119240878,-5,-2,-3,-11,-19,7,-1,0
1622149119240878,0,1,-2,-2,18,-2,0,-3
1622149119242851,0,-1,-5,-13,-49,-27,-10,-3
1622149119242851,-4,-1,0,9,4,7,1,5
1622149119255816,4,1,5,-6,8,0,4,-1
1622149119255816,-1,7,-6,-9,-14,-6,-5,-3
1622149119257832,-1,-4,0,-5,-32,12,0,5
1622149119257832,-2,-13,-4,6,2,1,-4,-2
1622149119277754,2,-19,-5,-20,-24,-20,-8,-8
1622149119277754,5,29,7,6,37,7,8,12
1622149119279749,-1,0,1,6,5,14,2,4
1622149119279749,0,1,-6,6,5,-19,-3,-6
1622149119292404,-1,-7,-9,-28,-14,-10,-7,-4
1622149119292404,-4,-34,-4,10,-6,5,-4,0
1622149119300879,9,21,3,-6,16,2,5,1
1622149119300879,0,-1,6,10,4,3,2,-1
1622149119315558,0,7,5,4,14,4,1,4
1622149119315558,-1,-12,-10,-4,-6,2,-2,-4
1622149119322405,-3,-7,5,1,18,-6,-1,-6
1622149119322405,4,3,-4,3,-12,2,-1,4
1622149119329796,0,1,1,0,5,6,0,0
1622149119329796,-2,1,-9,-4,-11,-11,-5,-6
1622149119338419,-2,-6,1,-1,25,8,2,2
1622149119338419,0,5,-1,-2,-17,2,-2,-3
1622149119360580,-2,0,-2,4,1,0,1,-7
1622149119360580,0,-1,8,17,5,-3,-1,1
1622149119362575,-1,1,-4,3,-36,7,0,0
1622149119362575,-3,-3,-3,-11,19,2,-2,-7
1622149119375628,-7,-2,-6,-7,-1,-7,-3,-1
1622149119375628,0,1,3,6,6,4,3,1
1622149119381944,-1,-2,-4,-27,-69,-5,-2,-3
1622149119381944,-9,-4,-2,40,58,-9,-6,-9
1622149119398717,-2,0,4,-1,2,1,3,3
1622149119398717,-1,2,2,-1,2,3,-2,-3
1622149119399477,-2,-4,-5,-10,4,-7,-1,-4
1622149119399477,0,8,0,-17,-24,-4,2,4
1622149119411835,1,1,4,14,25,8,2,0
1622149119411835,-3,-4,-2,-3,-5,-3,-4,-7
1622149119421453,-4,-3,-4,3,28,-6,-1,-2
1622149119421453,2,-1,1,-10,-18,4,0,3
1622149119434892,1,2,0,1,5,5,0,1
1622149119434892,-1,-1,-4,-13,-28,-15,-5,-2
1622149119443787,0,-2,1,10,24,6,2,5
1622149119443787,4,-1,1,-1,-9,7,0,2
1622149119449874,1,-1,-4,-3,-7,-7,-3,-4
1622149119449874,-3,-3,-1,0,2,-3,1,2
1622149119458974,2,-1,-1,4,7,3,-1,3
1622149119458974,3,-1,-5,-11,-11,-4,-1,-6
1622149119479813,-6,0,-1,0,-7,-8,-2,-1
1622149119479813,-3,0,-1,-5,-3,4,1,0
1622149119488057,0,-1,-2,8,14,-4,-3,-6
1622149119488057,3,-2,-2,-6,-4,-7,-1,1
1622149119496043,2,1,2,1,-6,6,1,6
1622149119496043,0,1,-3,-6,-5,3,-1,-2
1622149119504019,-2,-3,-4,0,12,-6,-2,-5
1622149119504019,-3,-1,0,0,-5,-2,-1,4
1622149119517982,-1,1,1,0,4,3,0,-2
1622149119517982,-2,-3,-3,-3,-14,-5,-2,-6
1622149119519977,-5,-3,-1,1,7,-5,0,0
1622149119519977,-3,-1,2,1,-2,2,1,-1
1622149119532350,-5,-2,-1,-5,-11,-2,-1,-4
1622149119532350,-7,-2,-2,-3,5,-7,0,-3
1622149119542329,-18,0,2,3,-1,1,1,-7
1622149119542329,-7,-1,-2,-3,-9,2,-3,-7
1622149119554326,-5,-2,-3,-3,2,-6,-1,-5
1622149119554326,4,-1,2,5,4,2,-1,7
1622149119563271,3,0,0,-7,-6,4,-3,3
1622149119563271,-1,0,-4,-1,3,-5,0,-4
1622149119569324,0,-2,-1,2,-2,-2,-3,3
1622149119569324,1,-1,1,0,-1,6,0,4
1622149119578314,2,-1,-3,-2,-4,-2,0,-4
1622149119578314,1,-1,-2,-4,-2,-3,0,0
1622149119592275,-1,0,2,3,1,3,0,2
1622149119592275,-3,1,-2,0,-1,0,-1,-3
1622149119602247,-1,-2,-3,-4,0,-5,-3,-2
1622149119602247,-1,-1,-1,2,1,1,0,1
1622149119615211,-2,0,1,-3,-4,3,0,-2
1622149119615211,-2,-3,-3,-2,2,-7,-2,-6
1622149119640973,0,-1,1,0,3,0,1,-1
1622149119640973,-2,1,2,-1,-3,2,-1,3
1622149119640973,-1,-1,-3,-3,-1,-5,-2,-5
1622149119640973,-1,-2,-2,0,1,-5,-2,-3
1622149119643877,0,1,2,1,-2,3,-1,2
1622149119643877,-3,-2,0,-2,1,-2,-1,-3
1622149119652421,-1,-2,-3,-3,-2,-6,-1,-4
1622149119652421,-1,0,2,3,2,5,1,2
1622149119660774,0,0,-1,-2,-2,1,0,1
1622149119660774,-1,-3,-1,-2,-3,-7,-2,-4
1622149119674908,0,-1,-1,0,-2,2,-1,3
1622149119674908,-1,-2,2,0,-2,1,-1,1
1622149119683793,0,-1,-2,-1,-2,-5,-1,-4
1622149119683793,0,-1,-3,-1,-1,-3,-2,-2
1622149119689876,0,1,2,0,0,5,1,3
1622149119689876,-1,-1,-2,-1,0,-1,-2,-1
1622149119698152,2,-1,-4,-1,-2,-4,-2,-2
1622149119698152,0,0,3,0,-1,2,1,2
1622149119711438,0,-2,-2,-3,-3,1,1,-1
1622149119711438,0,-1,-5,-3,-1,-6,0,-3
1622149119721445,0,-1,0,2,0,1,-2,2
1622149119721445,-1,0,1,1,0,1,-1,1
1622149119734629,-1,-2,-2,-3,-1,-6,-2,-2
1622149119734629,-1,-1,0,-2,-1,-3,-1,-2
1622149119766902,0,-1,3,1,-1,2,1,1
1622149119766902,1,-1,-1,-3,-1,-1,1,-2
1622149119766902,1,-2,-2,-2,-3,-4,-2,-3
1622149119766902,1,-1,1,1,2,3,0,3
1622149119768670,-2,-1,-1,-1,-2,0,-1,1
1622149119768670,-1,-1,-5,-2,-2,-5,-3,-3
1622149119772372,0,1,0,1,1,3,-2,2
1622149119772372,-1,0,1,0,-1,2,-1,2
1622149119780524,1,-2,-4,-4,-3,-7,-2,-4
1622149119780524,-1,-3,-2,-1,2,-2,0,-2
1622149119794492,0,1,0,2,-1,2,0,2
1622149119794492,-2,0,-2,-2,-1,-2,0,-3
1622149119803444,0,-2,-4,-3,0,-6,-3,-3
1622149119803444,0,-1,2,3,0,3,2,2
1622149119809501,-3,0,0,0,-3,-1,-1,0
1622149119809501,0,-1,-3,-2,-2,-5,-1,-3
1622149119818508,-2,-1,2,-1,0,3,-1,0
1622149119818508,-2,-1,1,1,-1,3,-1,1
1622149119832349,-1,-2,-2,-2,-2,-8,-1,-4
1622149119832349,-1,0,-3,1,0,-1,-2,0
1622149119847352,-1,-2,1,1,1,4,0,3
1622149119847352,1,-2,-1,-1,-3,-1,-1,-1
1622149119854323,-1,-2,-4,-2,-1,-4,-2,-4
1622149119854323,-1,-1,1,0,-2,4,-1,2
1622149119863273,0,0,1,0,-3,-2,-1,-2
1622149119863273,-1,-2,-4,-3,-1,-6,-1,-4
1622149119869306,-1,-1,0,0,0,2,-1,1
1622149119869306,-1,1,1,-2,-2,1,1,1
1622149119886838,-1,-1,-3,-3,-2,-4,-1,-2
1622149119886838,0,-2,-3,-1,1,-3,-2,-1
1622149119891852,2,-1,2,-1,-1,3,0,2
1622149119891852,-1,-1,0,-2,-2,-3,0,-2
1622149119900801,0,-2,-4,-1,-2,-6,-2,-3
1622149119900801,-2,2,-1,0,-1,4,-1,0
1622149119914818,-2,-2,-1,-1,-1,0,0,-2
1622149119914818,0,-1,-3,-3,0,-6,-3,-4
1622149119923969,-1,-3,0,1,-1,3,0,1
1622149119923969,-1,0,-1,2,-4,2,-1,1
1622149119929830,-1,0,-4,-4,-2,-8,-1,-3
1622149119929830,-1,-2,-2,-1,-2,-2,-1,-1
1622149119938133,-2,1,1,0,2,3,1,3
1622149119938133,-2,-1,-2,-3,-2,-3,-1,-2
1622149119952124,-2,1,-4,-1,-1,-5,-2,-4
1622149119952124,-2,-1,2,1,-2,5,1,1
1622149119961075,-1,1,-2,-1,-2,0,-2,-1
1622149119961075,-2,-3,-2,-3,-1,-4,-2,-3
1622149119974916,0,-2,0,1,2,4,-1,4
1622149119974916,-1,-1,0,1,-2,1,0,1
1622149119990879,-1,-2,-4,-4,-3,-5,-2,-4
1622149119990879,2,-1,0,0,0,2,-2,-1
1622149119998713,-1,-1,1,1,0,3,-1,1
1622149119998713,-1,0,-2,-3,0,-3,-1,-3
1622149119999714,-1,-1,-2,-1,-3,-6,-2,-3
1622149119999714,-1,-1,1,2,0,2,-1,3
1622149120011854,-2,-2,-2,-1,0,-2,0,-1
1622149120011854,-1,-2,-5,-4,-2,-6,-1,-4
1622149120020840,0,-1,2,1,0,3,-1,0
1622149120020840,-2,2,1,0,-2,1,-2,0
1622149120034830,-1,-1,-4,-1,-2,-6,-1,-4
1622149120034830,0,0,-1,-1,1,-1,0,0
1622149120043774,-1,-1,0,1,-2,3,0,1
1622149120043774,-1,0,-2,-2,-3,-5,-2,-2
1622149120058762,1,-2,-2,-3,-1,-3,-1,-2
1622149120058762,1,-1,1,2,0,4,-1,4
1622149120059731,-1,0,0,-1,0,-1,0,0
1622149120059731,0,-3,-4,-3,-1,-4,-1,-6
1622149120071698,0,1,2,1,-1,2,-1,0
1622149120071698,-1,-1,1,0,-1,3,-1,1
1622149120080827,0,-2,-4,-3,-2,-5,-1,-3
1622149120080827,-1,-1,2,-1,1,-2,1,2
1622149120094843,-1,1,1,-1,0,3,-1,0
1622149120094843,-1,-1,-2,0,-2,-5,-2,-1
1622149120103797,-1,-1,-4,-3,-2,-3,-2,-2
1622149120103797,-2,-1,0,1,-1,4,1,1
1622149120118744,-2,0,-2,-1,-2,-2,1,-2
1622149120118744,-2,0,-2,-3,-2,-7,-4,-4
1622149120119746,0,0,-1,0,-1,1,-1,0
1622149120119746,-1,0,1,-1,0,1,-1,-1
1622149120132394,-2,-1,-5,-3,-3,-5,-1,-5
1622149120132394,-1,-1,-2,-1,-1,0,0,-2
1622149120141372,-1,1,3,0,0,2,-2,2
1622149120141372,-1,0,-3,-3,1,-3,0,-3
1622149120163492,1,-2,-2,-2,-2,-3,0,-1
1622149120163492,-2,0,1,2,0,4,1,0
1622149120165451,0,-3,-2,-2,0,-2,-1,0
1622149120165451,0,-2,-3,-5,-3,-5,-2,-3
1622149120178817,0,-1,3,3,0,2,-2,1
1622149120178817,0,1,2,0,0,0,0,1
1622149120179774,-1,-2,-5,-4,-1,-5,0,-5
1622149120179774,0,-1,1,0,-1,1,-1,2
1622149120191853,0,1,0,0,-2,2,-1,2
1622149120191853,-1,-3,-3,-2,-2,-5,-1,-3
1622149120200805,-1,0,-3,-1,0,-3,-2,-3
1622149120200805,1,-3,2,3,-1,3,0,3
1622149120214799,-3,0,0,-2,-1,-1,-1,0
1622149120214799,0,-1,-3,-3,-1,-6,-1,-4
1622149120230833,-1,0,1,1,0,4,0,3
1622149120230833,-2,0,-2,0,-2,0,0,0
1622149120237841,0,-2,-4,-3,-2,-6,0,-5
1622149120237841,-1,0,0,0,-2,1,-1,2
1622149120239834,-2,-3,-1,0,-1,4,1,1
1622149120239834,-1,0,-3,-1,0,-5,-1,-4
1622149120251803,0,-4,-2,0,0,0,-1,-2
1622149120251803,-1,1,2,0,-2,2,-2,1
1622149120260778,-1,1,0,-2,-2,-3,0,-1
1622149120260778,0,-2,-4,-2,-2,-5,-1,-3
1622149120274919,-1,0,1,1,1,2,-1,4
1622149120274919,0,-3,-1,-1,-1,1,1,0
1622149120283857,-1,-1,-4,-4,-2,-6,-3,-5
1622149120283857,0,-2,0,-1,0,0,-2,0
1622149120312775,-1,-2,0,-1,-1,1,-2,0
1622149120312775,-2,-2,-3,-1,-3,-4,-2,-3
1622149120322605,-1,-1,0,-1,0,-4,-1,-1
1622149120322605,-2,1,0,1,-1,3,0,1
1622149120323603,0,0,0,-1,-1,-2,0,-2
1622149120323603,-2,-2,-3,-3,-1,-4,-1,-3
1622149120326898,-1,0,1,2,-1,3,0,1
1622149120326898,-3,-2,1,-1,-3,1,-1,1
1622149120334967,-2,-1,-3,-2,-2,-5,-1,-4
1622149120334967,0,0,0,1,0,1,0,2
1622149120343440,-1,-1,2,1,-1,2,0,1
1622149120343440,0,-1,-4,-2,0,-4,-2,-4
1622149120358816,1,-2,-2,-2,-1,-3,-1,-2
1622149120358816,2,-1,0,-1,0,1,1,2
1622149120359447,-1,1,0,0,-3,-2,-3,-2
1622149120359447,0,0,-2,-2,-2,-6,-1,-6
1622149120372391,-2,0,2,2,0,4,0,3
1622149120372391,-3,0,-2,0,-1,3,-1,1
1622149120380830,-1,-2,-4,-4,-2,-5,-1,-5
1622149120380830,0,1,1,-1,-2,1,-1,1
1622149120394804,-1,0,2,0,1,1,-2,0
1622149120394804,0,-3,-2,-4,-2,-5,-1,-4
1622149120403776,0,-1,-1,1,0,-2,-2,-1
1622149120403776,-2,0,2,3,-1,3,-2,1
1622149120425771,-2,0,-2,-2,-2,-3,1,-2
1622149120425771,0,-3,-4,-3,-1,-5,-3,-4
1622149120427772,-1,-3,0,1,1,2,0,3
1622149120427772,-1,-2,-2,0,-1,1,1,0
1622149120431792,-1,-1,-6,-3,-3,-5,-3,-2
1622149120431792,0,0,1,0,-1,0,0,1
1622149120440759,0,0,1,-1,0,2,1,2
1622149120440759,-2,-2,-2,-2,-2,-5,-2,-4
1622149120471277,-1,-1,-2,-2,-2,-1,-2,-1
1622149120471277,-1,-1,2,1,0,3,0,4
1622149120472276,-1,0,-1,-1,-2,-3,-1,-2
1622149120472276,-1,-2,-3,-3,0,-5,-1,-3
1622149120478846,1,-2,1,0,1,5,-2,1
1622149120478846,-1,1,0,0,-2,-1,0,-1
1622149120479776,-2,-1,-3,-4,-3,-5,-1,-3
1622149120479776,-2,-1,0,-2,1,1,-1,1
1622149120491771,-2,-1,1,1,-3,1,2,0
1622149120491771,-1,-2,-1,-1,-1,-5,-2,-3
1622149120508221,-1,0,-1,0,0,-1,0,-2
1622149120508221,0,0,2,1,-1,3,2,2
1622149120514248,-3,0,-2,-4,-1,-2,-1,-2
1622149120514248,-1,-2,-5,-2,-2,-4,-3,-3
1622149120523941,-1,-1,1,1,-2,3,-1,2
1622149120523941,0,0,-1,0,-1,0,0,-2
1622149120538825,0,-2,-2,-1,1,-6,0,-4
1622149120538825,0,2,-1,-1,-1,1,1,1
1622149120539774,0,0,0,-2,-2,2,-1,0
1622149120539774,-3,-3,-2,-4,-2,-5,-2,-3
1622149120551748,0,0,-1,1,-2,-1,0,0
1622149120551748,0,1,1,-1,-1,3,1,0
1622149120560772,0,-3,-3,-2,-1,-5,0,-2
1622149120560772,0,0,-5,-1,-1,-5,-3,-3
1622149120574913,-1,1,1,2,0,3,-2,1
1622149120574913,-1,-3,-1,-3,-2,2,-2,-1
1622149120600365,-2,0,-4,-3,-2,-7,-1,-3
1622149120600365,1,-1,0,-1,-1,2,1,2
1622149120601363,0,-1,0,1,-1,4,0,3
1622149120601363,-1,0,-5,-2,-1,-3,0,-4
1622149120604376,1,-2,1,0,-1,0,0,1
1622149120604376,-1,-1,2,0,1,3,-2,2
1622149120612479,0,1,-3,-3,-2,-4,-2,-1
1622149120612479,0,-1,-2,-3,-1,-6,-1,-2
1622149120628061,-1,0,2,1,-1,6,1,1
1622149120628061,-1,0,0,0,0,0,-1,-3
1622149120634905,1,-2,-3,-4,-1,-6,-2,-4
1622149120634905,-2,-2,0,0,-1,2,0,1
1622149120643775,-1,-1,0,-1,2,2,1,2
1622149120643775,-2,-2,-4,-3,-2,-4,-1,-2
1622149120666374,0,-1,0,1,0,0,-2,-3
1622149120666374,0,0,1,0,0,3,0,3
1622149120667989,-2,-1,-2,-1,-2,-3,-2,-4
1622149120667989,-1,-2,-3,-2,-3,-5,-2,-4
1622149120672087,-2,-2,1,1,0,1,2,2
1622149120672087,-2,-1,0,0,0,0,-2,-1
1622149120680871,1,-2,-4,-2,-4,-6,-2,-4
1622149120680871,-2,1,2,1,1,2,-2,2
1622149120694641,-2,-2,1,-1,-1,2,-1,3
1622149120694641,-3,-1,-3,-1,-1,-6,-3,-3
1622149120703410,-1,-1,0,-2,2,-1,0,0
