timestamp,emg1,emg2,emg3,emg4,emg5,emg6,emg7,emg8
1622149274330639,-4,-1,1,-11,1,14,15,10
1622149274330639,1,-2,-10,-21,-27,-30,-32,-8
1622149274331638,0,0,4,5,3,24,-7,11
1622149274331638,-1,-6,2,2,-7,-22,-7,6
1622149274344904,4,8,-1,2,-5,-19,17,-32
1622149274344904,4,-6,2,0,20,27,-7,20
1622149274353238,-3,5,-1,22,22,3,56,19
1622149274353238,2,-12,1,-36,-31,-18,3,-10
1622149274369830,1,1,-7,0,-11,22,-42,3
1622149274369830,3,14,2,7,2,31,17,8
1622149274370794,-8,-4,-7,-17,-26,-30,-31,-2
1622149274370794,10,7,13,23,24,4,-40,-6
1622149274382816,-7,-13,-11,-3,11,14,102,23
1622149274382816,-9,7,10,0,-7,-6,-99,-46
1622149274390774,3,4,-11,-14,-29,1,-21,-8
1622149274390774,0,-2,-1,9,24,-22,14,-5
1622149274406727,0,-1,10,-20,-37,16,34,14
1622149274406727,-3,-6,-15,-14,26,38,-21,-4
1622149274412710,-2,-2,-3,-7,18,-29,35,0
1622149274412710,5,-1,-5,-2,-7,10,-63,-20
1622149274427716,-2,-10,-3,18,-1,-5,12,2
1622149274427716,-1,3,3,9,-42,-7,38,11
1622149274443836,11,5,-5,2,39,21,-17,7
1622149274443836,-25,3,4,-31,-44,-16,28,38
1622149274445799,7,-5,-6,-6,13,-13,-34,-17
1622149274445799,-2,-4,8,-7,16,3,-9,-2
1622149274450785,-2,-3,-4,-4,-21,0,0,-9
1622149274450785,8,4,9,13,9,-17,29,15
1622149274465772,-12,-3,-1,20,9,7,0,-1
1622149274465772,4,-10,-10,-23,26,-13,-54,3
1622149274472726,6,9,4,4,-31,31,48,10
1622149274472726,-2,-13,-9,-15,19,-1,-4,-29
1622149274489830,-11,1,-1,9,-4,-24,-61,-28
1622149274489830,22,-4,13,15,10,-3,58,41
1622149274495815,-18,5,-2,5,-4,24,-27,-22
1622149274495815,6,-2,-4,-34,-25,-6,-3,0
1622149274502824,1,-3,0,-15,7,-1,12,0
1622149274502824,-8,2,1,11,-7,8,21,13
1622149274510855,2,-7,5,2,-7,-18,0,6
1622149274510855,19,-4,-9,-10,7,26,14,-11
1622149274526682,-24,8,8,33,3,-12,-23,0
1622149274526682,-9,-8,-5,-24,-11,2,30,-19
1622149274533330,8,-4,1,-7,4,-8,-45,11
1622149274533330,0,3,-2,29,12,4,-29,-10
1622149274547785,13,4,9,-24,-34,11,16,6
1622149274547785,3,-6,-8,19,19,10,41,10
1622149274572901,-5,-6,-9,-21,-14,-39,-7,-7
1622149274572901,-8,3,-5,18,16,19,-30,9
1622149274574555,-9,-1,-4,-2,11,-6,-13,-13
1622149274574555,3,-6,-9,-6,-21,-19,25,-7
1622149274574555,0,-1,9,-10,11,-2,10,11
1622149274574555,2,-6,-5,-1,-8,7,-3,10
1622149274585894,0,9,3,15,-15,-5,-5,2
1622149274585894,-6,-2,-4,-15,19,-21,-5,-18
1622149274592974,-1,1,3,27,8,11,-3,-6
1622149274592974,0,-4,-3,-21,-5,17,0,-10
1622149274616901,23,-3,-3,7,2,-19,-5,8
1622149274616901,-29,2,3,9,-8,10,18,-8
1622149274617919,0,2,-3,-4,45,-8,-52,3
1622149274617919,-4,-4,-2,2,-28,4,31,-4
1622149274630844,6,2,-5,-15,-30,0,10,7
1622149274630844,9,-5,6,13,16,3,-8,-8
1622149274631842,-14,6,-1,-4,5,2,-9,8
1622149274631842,-3,-3,-2,17,8,14,-9,-35
1622149274646819,1,1,1,-13,13,2,34,17
1622149274646819,5,-3,-4,1,2,-2,-27,0
1622149274652804,-4,-13,-7,-21,-37,-11,18,4
1622149274652804,-3,15,9,8,37,-12,-19,-4
1622149274668297,-7,-2,5,7,-10,-29,-1,-12
1622149274668297,0,4,-2,-14,-2,14,22,18
1622149274684031,2,-5,-8,1,7,2,-18,-11
1622149274684031,4,0,19,23,7,-15,-8,9
1622149274691039,20,0,-4,-7,-17,2,2,-3
1622149274691039,-24,-3,-3,-9,-14,15,-1,-6
1622149274692012,2,2,-2,1,-10,-7,6,4
1622149274692012,-12,-8,-11,-17,-30,-7,-27,-49
1622149274705904,2,-1,0,7,9,-3,10,14
1622149274705904,9,-3,-3,-17,-19,-2,-78,-14
1622149274720822,-3,3,-2,19,16,8,68,15
1622149274720822,2,-1,0,-10,-15,-5,-1,16
1622149274727876,-12,-10,-9,-1,2,0,-18,-12
1622149274727876,8,9,3,0,15,0,23,5
1622149274736475,-7,-8,-7,1,-14,20,33,-8
1622149274736475,-1,4,11,-18,12,-36,-18,15
1622149274767424,7,-1,-3,9,-27,3,-17,0
1622149274767424,-3,4,1,8,31,0,-4,10
1622149274768397,0,1,8,10,16,-3,0,-12
1622149274768397,4,-11,-16,-15,-17,18,-2,5
1622149274769391,-18,9,-4,5,25,-10,21,-2
1622149274769391,1,-3,-2,1,-5,6,18,3
1622149274772535,26,1,4,-1,-6,-42,-46,-17
1622149274772535,-28,4,-9,-6,-11,31,-1,6
1622149274787913,0,-2,1,3,26,-21,-14,-4
1622149274787913,1,-5,-9,-13,-13,-8,18,18
1622149274795988,1,-3,-1,5,11,19,22,-1
1622149274795988,6,1,-5,-10,-20,-12,19,17
1622149274810923,1,-1,-1,-21,28,9,-2,-12
1622149274810923,7,0,5,18,1,-23,-6,-7
1622149274811922,-8,-4,-5,-12,11,19,-26,1
1622149274811922,0,-4,0,16,-10,-13,4,-19
1622149274825779,-1,1,0,-1,4,18,22,25
1622149274825779,-1,-6,-4,-6,-3,17,-24,-26
1622149274832786,-5,-1,4,-4,-27,-14,-12,20
1622149274832786,2,-6,-9,-4,19,8,21,-11
1622149274847844,-1,5,0,2,2,-20,-24,13
1622149274847844,0,-11,1,19,-21,3,-11,-1
1622149274855822,-11,15,-1,-18,7,-6,-9,-4
1622149274855822,12,-4,-12,-12,0,16,2,1
1622149274871501,14,-2,8,-1,-6,-4,-17,14
1622149274871501,-23,-4,-2,-2,-4,-8,63,3
1622149274872332,1,-2,1,-6,-27,-6,-66,-18
1622149274872332,-5,-1,-3,37,47,18,-18,-20
1622149274893377,4,1,7,-2,-6,36,37,-1
1622149274893377,4,3,1,4,-32,-7,16,25
1622149274895351,3,2,3,2,29,1,16,-3
1622149274895351,-2,-7,-8,-23,-9,14,19,17
1622149274908318,-11,-7,-8,4,17,2,-62,-38
1622149274908318,2,-1,2,-8,-8,-9,-32,-4
1622149274915295,1,4,-2,10,-28,0,47,15
1622149274915295,3,11,10,11,-3,-28,17,13
1622149274931322,-13,-6,-2,-12,4,-4,-27,-7
1622149274931322,4,0,-6,2,13,2,25,-9
1622149274932315,1,-9,-10,-12,-22,11,-21,-5
1622149274932315,-8,1,12,12,0,-47,-4,3
1622149274945282,-4,1,2,2,-42,10,23,-12
1622149274945282,3,2,0,-12,13,1,0,-16
1622149274953282,-5,-10,-8,-8,34,3,7,1
1622149274953282,-7,0,-3,6,-36,-25,-10,29
1622149274968411,-3,-3,4,-4,0,7,-14,-23
1622149274968411,7,9,0,19,21,-3,8,3
1622149274975890,-6,-1,2,-13,-32,-9,0,7
1622149274975890,5,-4,-7,-7,23,15,-18,-15
1622149274991555,0,-4,4,8,-19,2,6,5
1622149274991555,-12,-1,-4,16,-19,-1,-13,-10
1622149274992397,7,-6,-1,-10,28,13,32,-2
1622149274992397,-13,-3,-4,-13,-33,-1,-34,-9
1622149275005895,16,3,-6,-18,7,-10,19,11
1622149275005895,2,4,10,40,4,11,37,10
1622149275021671,-2,-1,-1,2,-12,-4,-29,-13
1622149275021671,-3,-4,4,8,11,-2,28,3
1622149275027879,-11,-2,-11,-20,6,-22,-30,10
1622149275027879,6,2,-2,-16,-13,2,-12,-24
1622149275035913,8,-4,13,18,12,-8,25,1
1622149275035913,22,-1,-7,-15,-5,-21,28,27
1622149275050875,-36,4,-3,9,2,36,8,-4
1622149275050875,-1,-4,-1,-19,13,-23,-29,1
1622149275051872,1,0,0,25,-26,-19,-20,8
1622149275051872,6,-2,-7,-38,-7,0,-1,-16
1622149275065552,-2,-7,-2,21,13,-15,21,-3
1622149275065552,2,4,6,-3,-20,0,-15,3
1622149275073379,-16,0,3,-24,-16,23,-1,1
1622149275073379,1,3,5,19,10,2,17,-10
1622149275088460,0,-3,-3,0,9,-9,-24,-6
1622149275088460,0,-4,-16,-30,-1,7,13,1
1622149275095443,7,4,1,1,-15,-45,-7,-2
1622149275095443,3,4,4,4,5,20,-1,8
1622149275119820,-13,-6,-4,15,25,4,1,-14
1622149275119820,7,-5,-3,-25,-26,-10,16,-8
1622149275119820,-4,-2,-5,18,0,23,2,17
1622149275119820,23,-6,8,-5,-19,-9,-7,-5
1622149275125900,-22,7,-4,6,40,-3,2,1
1622149275125900,-5,4,2,3,-54,-5,-5,15
1622149275132825,2,-3,-13,-24,7,2,-1,-8
1622149275132825,-12,1,11,29,10,15,13,2
1622149275147943,21,1,3,-3,-14,-5,-25,3
1622149275147943,-2,-4,-3,-17,26,2,-3,-13
1622149275155897,-5,-1,-2,26,-3,-9,15,-1
1622149275155897,-10,-3,-3,-2,24,33,-18,-3
1622149275172332,15,3,0,-20,-24,-6,8,-1
1622149275172332,-9,-10,0,16,-11,-9,7,14
1622149275173335,-1,-7,-7,-15,-19,-13,-77,-40
1622149275173335,-6,5,0,1,37,18,45,10
1622149275185808,5,-2,10,19,-32,8,48,12
1622149275185808,0,-1,-11,-30,42,-43,-14,7
1622149275192832,0,-2,5,3,-22,7,-1,3
1622149275192832,-7,-12,-2,20,21,12,-11,-13
1622149275207877,3,10,-5,-22,-50,1,-4,-17
1622149275207877,1,-5,0,25,21,-24,-31,-6
1622149275215978,-7,3,-1,-26,17,4,12,-1
1622149275215978,16,6,-2,-3,-39,-14,2,-3
1622149275231560,-11,-9,1,0,21,3,1,13
1622149275231560,-5,4,8,1,0,6,6,-8
1622149275232384,-7,-5,-5,-9,31,-6,-9,-4
1622149275232384,-4,0,-10,-11,-41,-7,7,11
1622149275244958,10,0,3,12,46,1,-6,-26
1622149275244958,0,-2,-2,-7,-2,1,-23,2
1622149275253451,-2,2,-3,0,6,-24,12,4
1622149275253451,-7,-4,-4,-5,-6,17,28,-5
1622149275268401,3,-8,-6,-18,-31,-60,-72,9
1622149275268401,-1,4,6,35,10,37,3,8
1622149275275875,-5,-5,-3,-16,6,0,9,-36
1622149275275875,1,-3,-5,-5,-20,-13,12,23
1622149275291485,2,-5,-7,0,4,12,14,9
1622149275291485,5,0,-2,6,3,8,-2,1
1622149275291485,25,0,1,8,-14,13,-1,6
1622149275291485,-29,-5,1,-6,47,-13,-26,-8
1622149275305889,-9,3,-4,0,-30,-9,33,4
1622149275305889,1,4,11,-1,18,-3,-5,0
1622149275320881,4,8,2,8,12,22,-16,14
1622149275320881,3,-1,-7,-9,-22,1,8,-8
1622149275327837,8,-1,9,-37,1,-12,-17,5
1622149275327837,-9,-5,-15,11,4,35,3,2
1622149275335815,12,-1,-1,-4,-14,-11,10,-7
1622149275335815,-4,-1,8,22,35,11,11,-24
1622149275350776,2,-7,-5,-6,-14,-24,-45,2
1622149275350776,-4,9,5,-11,-11,1,10,2
1622149275351773,3,-5,-2,3,0,-3,9,12
1622149275351773,-13,1,5,-5,1,-9,-29,1
1622149275365760,5,-5,-2,14,-7,17,-1,6
1622149275365760,2,-2,0,9,27,-2,52,-26
1622149275372717,-7,0,-17,-38,-26,15,9,7
1622149275372717,9,-8,5,17,-9,-13,-8,5
1622149275395656,-1,21,13,2,28,0,-14,0
1622149275395656,-3,-7,-3,20,6,25,21,6
1622149275396654,-13,2,3,-10,-10,-20,-26,3
1622149275396654,5,2,-3,-8,-8,-8,-11,-8
1622149275410616,1,-9,-9,-6,17,1,30,-14
1622149275410616,10,4,-2,-13,-13,15,-19,-3
1622149275418594,-11,-3,4,18,39,-14,26,-23
1622149275418594,-2,3,-5,-11,-10,-15,-69,-13
1622149275424967,5,-13,-6,6,-9,12,83,15
1622149275424967,-12,9,9,-13,-16,-15,-38,-7
1622149275432946,3,-1,8,18,1,-9,12,0
1622149275432946,18,-7,-2,-11,-3,-7,-9,3
1622149275449903,-19,9,-3,13,18,6,14,3
1622149275449903,2,-13,-11,-28,-27,11,-25,-22
1622149275455886,-6,4,4,12,6,-18,-38,-1
1622149275455886,2,-1,-5,-7,-26,3,20,10
1622149275478824,3,-2,-2,3,0,22,10,9
1622149275478824,12,-12,-10,-12,8,-33,-12,-5
1622149275479821,-17,-2,-1,-2,12,25,14,13
1622149275479821,-11,7,8,11,-5,5,-23,-18
1622149275485887,2,-8,-11,-22,1,8,-18,-29
1622149275485887,4,2,8,5,19,1,6,30
1622149275492858,8,-1,-3,2,-23,13,9,9
1622149275492858,-8,-2,1,6,37,16,22,6
1622149275507843,-3,7,-7,4,13,2,18,-7
1622149275507843,-7,-6,5,-3,-69,-14,0,-10
1622149275515821,-1,1,3,-13,15,-10,-10,3
1622149275515821,8,3,11,12,14,25,18,12
1622149275530357,10,-6,-5,-9,1,9,-26,3
1622149275530357,-13,-4,-3,7,-22,-14,36,18
1622149275538378,-3,9,-3,-4,-4,-8,0,-12
1622149275538378,1,-6,-2,-12,-10,-5,11,19
1622149275545878,-9,4,10,14,-17,-11,-26,-36
1622149275545878,-1,6,-6,-17,10,-26,-28,1
1622149275552862,16,-7,-2,26,-9,28,32,3
1622149275552862,-23,-2,-5,-33,1,-22,-9,-7
1622149275567833,-1,-3,3,4,-18,15,1,42
1622149275567833,2,7,-3,-3,15,41,30,-5
1622149275575829,5,1,2,2,-40,-64,-58,-19
1622149275575829,5,1,4,19,39,15,12,3
1622149275590808,-1,-3,3,-9,-23,1,19,4
1622149275590808,-3,-9,-2,8,-3,-5,-5,-8
1622149275598766,0,-2,0,8,32,18,18,11
1622149275598766,-1,4,3,-9,-14,-10,-5,-7
1622149275613726,11,-11,-8,-16,-5,-44,7,7
1622149275613726,-13,3,4,-4,36,19,-43,-27
1622149275614751,-6,-4,-7,-9,-16,17,4,13
1622149275614751,1,-6,-17,-13,-31,-14,-21,-9
1622149275627993,-3,2,10,32,20,-19,6,1
1622149275627993,2,-4,5,-13,11,12,15,2
1622149275635869,18,7,0,2,-4,-3,-40,-13
1622149275635869,-19,-5,-12,-5,4,15,27,1
1622149275650869,-8,2,0,-7,14,13,-9,15
1622149275650869,4,-2,-9,-11,-11,-17,11,16
1622149275659106,-4,-4,3,7,-3,5,-37,-7
1622149275659106,11,0,5,10,0,11,33,13
1622149275682281,-6,2,1,5,-21,-29,-55,-38
1622149275682281,-3,-5,-4,-3,-42,-5,35,-6
1622149275682365,-16,-4,-11,-12,24,-5,11,2
1622149275682365,2,3,-2,4,1,-30,-31,-34
1622149275688351,1,-4,8,7,0,59,8,2
1622149275688351,-3,-1,0,5,-21,-2,-4,-4
1622149275695905,-3,-3,5,2,1,-2,29,10
1622149275695905,-10,3,-1,-14,-14,-10,-7,0
1622149275710874,9,-2,-13,7,37,5,29,-3
1622149275710874,-4,1,3,-4,-3,-15,-26,12
1622149275726593,2,-1,1,-9,-20,5,-2,5
1622149275726593,21,1,0,14,31,1,19,7
1622149275733600,-20,-6,-9,-5,-21,3,-18,-4
1622149275733600,5,2,7,-6,6,-15,-10,-1
1622149275734578,-9,-2,-5,-7,6,-4,35,21
1622149275734578,11,-14,-1,-2,-13,-15,-12,0
1622149275747574,-5,14,3,1,-2,-1,4,6
1622149275747574,9,3,-8,-9,31,0,-22,-6
1622149275755548,-5,4,0,-12,-10,-8,42,11
1622149275755548,4,-6,2,0,-26,1,-11,-4
1622149275770539,5,-4,-1,9,14,20,13,10
1622149275770539,-5,0,6,0,7,-17,-22,-6
1622149275778944,-2,-2,-8,-7,-28,13,9,-12
1622149275778944,-2,3,-6,24,11,2,-20,13
1622149275793896,-4,-4,0,-13,-21,3,13,-1
1622149275793896,-7,6,-8,29,54,12,34,1
1622149275794895,18,-10,9,-5,-17,-13,-43,3
1622149275794895,-8,5,-1,-6,-28,-6,-6,-33
1622149275808472,6,4,7,6,23,-18,5,-12
1622149275808472,1,-6,-1,19,-15,15,7,-5
1622149275815897,-9,-2,5,10,39,-10,-11,5
1622149275815897,-3,4,-8,-43,-28,-7,-19,-16
1622149275830796,14,0,0,-13,-2,-10,10,-2
1622149275830796,-12,-6,-9,0,14,16,2,0
1622149275838775,-4,-7,1,15,-4,-18,-21,-21
1622149275838775,6,-2,6,6,-9,14,-6,14
1622149275853775,-12,9,-1,-16,-8,0,-4,-7
1622149275853775,6,-1,5,30,-12,-2,6,10
1622149275854771,-6,-5,-10,-29,41,25,25,-6
1622149275854771,-2,-1,-8,-9,-29,-26,0,19
1622149275868439,-1,-4,7,6,0,-8,-28,-2
1622149275868439,4,1,-11,0,-3,1,13,20
1622149275875734,13,7,6,9,-3,-6,7,-26
1622149275875734,-20,-6,-7,1,29,14,-5,14
1622149275890694,2,-7,-3,3,-15,-3,6,-33
1622149275890694,6,1,3,-2,-2,-11,0,24
1622149275898672,-4,-1,-7,4,15,14,4,-9
1622149275898672,-1,-7,-12,-28,-14,-5,-3,-4
1622149275913657,-5,0,-4,6,-10,-23,-44,2
1622149275913657,11,5,11,8,6,-21,11,-12
1622149275914630,-9,-2,-5,-20,-45,2,-7,5
1622149275914630,-3,2,4,22,3,16,12,-6
1622149275927643,4,-4,-4,15,43,12,-15,18
1622149275927643,-9,-9,-11,-26,-92,6,15,-10
1622149275934985,3,8,9,37,37,3,-34,-7
1622149275934985,-6,-6,4,-17,9,-7,-2,8
1622149275950873,6,3,-8,-24,-6,5,12,-4
1622149275950873,-10,0,-1,-3,8,3,-19,3
1622149275959102,-16,-5,-6,17,4,16,6,0
1622149275959102,11,6,22,22,-2,7,25,1
1622149275974066,-6,1,19,9,-16,-15,-1,3
1622149275974066,3,-6,-14,-21,32,-15,-67,-35
1622149275974066,-3,3,-2,-8,-73,-24,34,28
1622149275974066,-1,3,-3,7,78,17,9,-2
1622149275988491,2,-2,-5,-2,-35,-2,-8,4
1622149275988491,-5,-6,4,9,6,10,60,-3
1622149275995499,6,-2,-4,-24,24,-32,-55,-5
1622149275995499,-15,0,-2,12,-23,22,2,6
1622149276010885,14,-1,-4,-9,-7,-34,32,27
1622149276010885,-5,0,8,10,13,15,-20,-13
1622149276019153,9,3,-3,-19,15,14,10,4
1622149276019153,-5,-2,-3,8,-20,-6,17,-3
1622149276034067,45,-3,-12,-24,6,-4,-16,10
1622149276034067,-47,0,-3,-1,-6,17,16,-17
1622149276034067,2,0,10,19,25,-22,-4,8
1622149276034067,3,0,-3,-10,-16,-15,-14,-8
1622149276048057,-4,-6,-3,5,2,27,23,5
1622149276048057,15,4,12,24,25,-61,-58,2
1622149276055137,-14,4,-4,-15,-51,31,11,-15
1622149276055137,8,-8,-17,-7,-16,-31,-15,-32
1622149276079296,-23,0,11,2,4,-9,8,-5
1622149276079296,5,-4,-5,-7,2,8,17,8
1622149276080290,2,-3,-7,-5,19,19,9,-7
1622149276080290,3,5,4,0,-42,-2,0,8
1622149276093271,-1,-4,-11,2,30,-16,-17,12
1622149276093271,3,-10,1,21,16,-16,-8,1
1622149276094250,-2,7,-5,-32,-19,29,35,20
1622149276094250,9,0,-10,-18,1,25,4,0
1622149276108496,-43,-5,5,12,-21,-6,-22,-1
1622149276108496,5,1,0,-12,1,8,-28,-31
1622149276115978,10,-3,8,7,-7,-12,-7,-7
1622149276115978,0,-4,-5,11,23,-16,-5,0
1622149276130974,-1,6,-4,-10,-1,9,-1,-9
1622149276130974,1,3,-5,0,-7,-2,8,25
1622149276139062,-10,2,-6,-20,9,9,8,-4
1622149276139062,3,-1,-2,5,13,-16,-28,7
1622149276153531,0,-7,18,12,0,42,57,-4
1622149276153531,-5,2,-8,-23,-5,-7,-20,-7
1622149276154430,16,-8,-4,10,-33,-13,7,-5
1622149276154430,-14,-4,2,-5,16,20,9,43
1622149276168148,-2,-2,-2,-4,20,-13,-41,-6
1622149276168148,0,3,-5,-15,-29,24,27,2
1622149276175931,-2,-3,7,20,8,0,13,-2
1622149276175931,21,4,8,26,22,1,-13,-14
1622149276190928,-22,-1,-5,-23,-38,3,-9,-10
1622149276190928,1,-1,3,-3,9,-6,32,16
1622149276199145,-3,-3,-10,2,16,-5,-22,-5
1622149276199145,3,0,3,-3,13,-6,19,-3
1622149276213874,14,2,-3,20,19,3,-9,-10
1622149276213874,-2,2,1,-6,-75,34,11,12
1622149276214871,-5,-4,-12,11,29,-58,-11,-3
1622149276214871,-2,-1,10,-7,12,23,11,-28
1622149276227880,4,-2,14,2,18,-10,-13,-6
1622149276227880,-1,-3,-9,-3,-7,20,-36,8
1622149276251796,-4,-4,20,24,10,-34,10,-3
1622149276251796,-10,-2,-5,-4,-76,3,-27,-1
1622149276253790,6,1,-14,-35,-1,9,11,2
1622149276253790,2,0,6,11,17,-14,-3,3
1622149276258522,-3,-6,-7,-23,-6,13,5,1
1622149276258522,15,8,7,30,47,16,23,8
1622149276274045,-30,-6,-8,-4,-18,-25,-39,-13
1622149276274045,19,-10,-1,-14,-9,-13,23,-3
1622149276274045,-4,11,3,-1,-1,11,-6,16
1622149276274045,-7,0,-1,5,-30,-8,33,-45
1622149276288461,12,-5,-10,-3,-3,-3,-59,23
1622149276288461,0,5,4,4,26,13,16,14
1622149276295445,0,-7,-1,2,8,-37,1,-7
1622149276295445,-9,-3,-3,-17,-25,20,8,1
1622149276319087,18,-2,-11,-9,21,0,24,1
1622149276319087,-12,-6,0,14,-11,-13,-43,-16
1622149276319774,1,8,12,5,-4,-12,47,34
1622149276319774,-12,-8,-8,-5,-17,9,-41,-16
1622149276333417,5,-8,-14,-2,0,11,15,7
1622149276333417,-5,14,-7,-13,4,-8,21,-18
1622149276340779,2,-2,1,8,0,38,-14,-13
1622149276340779,-2,4,15,13,24,-34,33,23
1622149276347786,-3,-4,-13,-30,2,-1,-43,-11
1622149276347786,3,-5,-2,-9,-1,-3,3,-15
1622149276355079,-3,0,-5,-1,-35,10,-7,6
1622149276355079,-2,-3,-8,-6,27,-8,8,4
1622149276370287,2,8,12,25,-17,-17,-26,-7
1622149276370287,-2,-9,-5,-13,24,-2,25,10
1622149276378125,0,-2,-3,-3,19,11,25,-2
1622149276378125,15,-4,2,3,-20,-9,-40,2
1622149276392971,-19,5,3,-13,-8,-16,14,-36
1622149276392971,13,-5,0,40,42,-2,-27,6
1622149276400893,-14,1,13,-20,-39,9,38,1
1622149276400893,6,-2,-4,24,43,2,-35,17
1622149276408505,-5,2,-2,-17,-22,14,35,2
1622149276408505,-2,-4,-7,-5,-36,-13,-13,-4
1622149276415977,3,-4,-3,11,2,11,-34,-10
1622149276415977,-4,5,2,-13,0,-35,-30,8
1622149276430906,1,0,3,40,22,0,47,2
1622149276430906,-3,-3,-11,-36,-13,21,34,5
1622149276437889,1,-4,-5,-21,-13,-19,-48,0
1622149276437889,-6,3,2,-7,2,-2,-25,-19
1622149276453082,5,-14,-1,-6,-6,10,20,-7
1622149276453082,6,12,2,10,-32,-3,0,-3
1622149276460876,2,2,9,23,43,0,-8,-1
1622149276460876,6,-1,10,-6,-9,-13,-4,10
1622149276468373,-14,2,6,10,7,17,16,5
1622149276468373,2,-1,2,1,12,-8,11,-2
1622149276475855,-7,-1,-8,0,9,27,-12,-8
1622149276475855,0,-2,-2,-22,-17,-29,12,-6
1622149276490825,10,-6,-6,-7,0,-9,2,-12
1622149276490825,-12,6,-1,-7,-17,-12,-24,13
1622149276497834,6,-6,-13,-4,7,22,42,3
1622149276497834,-6,-10,-22,-1,-10,-27,-16,-24
1622149276522223,-1,10,3,4,-3,-9,14,8
1622149276522223,10,-5,10,21,-1,-14,-4,6
1622149276522375,0,-2,-14,-41,31,6,-2,6
1622149276522375,-3,3,1,-10,-52,17,23,2
1622149276536592,0,1,16,21,20,3,-11,2
1622149276536592,-3,-7,-3,1,13,-20,-33,-4
1622149276536592,14,6,-9,5,-8,-18,-10,-17
1622149276536592,-18,0,4,-4,6,13,-12,4
1622149276551583,-7,-4,-15,-5,3,-6,-10,-1
1622149276551583,0,-3,11,10,0,24,47,4
1622149276566519,0,-1,11,-6,-4,-5,-13,42
1622149276566519,-3,-2,-13,0,-11,21,0,1
1622149276572501,10,3,5,0,-3,12,34,19
1622149276572501,4,1,-5,-9,-1,-13,-29,-11
1622149276581477,-10,-11,-13,8,-15,13,7,-10
1622149276581477,3,-4,9,-9,13,1,14,15
1622149276596642,-4,0,-5,4,-7,4,5,-2
1622149276596642,2,-2,-9,-17,6,22,-25,-3
1622149276596642,-9,0,17,46,3,-8,-15,-13
1622149276596642,-1,2,-6,-17,5,15,26,1
1622149276610881,1,5,6,12,3,-26,-19,-20
1622149276610881,6,-1,-2,-15,5,-1,17,16
1622149276618515,3,-8,-10,-25,-35,13,-6,-40
1622149276618515,-16,2,-8,18,31,2,-41,-20
1622149276633471,5,4,19,7,-26,-5,7,23
1622149276633471,-10,3,19,12,9,-10,7,2
1622149276641664,12,-6,-4,-6,13,13,14,4
1622149276641664,-2,7,1,2,23,2,-7,-6
1622149276656706,-7,-9,-15,-13,-40,-14,0,-4
1622149276656706,5,-4,2,-4,15,23,-28,2
1622149276656706,-5,4,-1,7,-14,-47,14,-2
1622149276656706,5,2,4,11,-3,0,5,-4
1622149276670056,-7,-5,1,-5,12,38,2,-3
1622149276670056,-7,2,-4,-6,-4,-22,-20,-19
1622149276677813,13,-5,-8,-11,0,-11,-16,36
1622149276677813,-4,9,5,17,8,23,-23,-27
1622149276692828,-5,-8,-2,2,-26,-4,-9,19
1622149276692828,-16,7,-2,8,2,24,11,-28
1622149276708747,-12,0,0,7,-11,4,17,10
1622149276708747,-5,-8,-2,-32,-12,4,23,12
1622149276716728,24,5,-2,2,27,5,-15,-8
1622149276716728,-10,-2,-3,11,8,-55,-16,-5
1622149276716728,7,3,-7,-8,2,50,21,1
1622149276716728,3,-2,3,18,12,-12,-2,9
1622149276730967,-17,-7,-5,-8,0,-9,-3,-11
1622149276730967,11,-11,-5,-16,-9,16,39,39
1622149276738488,-7,14,4,8,30,-23,-48,-52
1622149276738488,10,-8,-14,-22,-66,-13,41,9
1622149276753460,-1,3,6,6,25,20,-17,3
1622149276753460,2,-4,6,-4,-16,-23,-17,1
1622149276760873,-9,7,5,8,35,5,10,11
1622149276760873,-3,2,6,1,-26,-5,-21,6
1622149276775873,2,5,0,2,-10,-26,1,-8
1622149276775873,21,-5,-14,-11,11,23,-5,-13
1622149276776874,-23,-6,-1,8,7,-2,37,-11
1622149276776874,1,-4,6,13,14,-1,-21,12
1622149276790801,0,-3,-9,10,-19,2,13,3
1622149276790801,7,6,-8,-34,-32,19,-21,-22
1622149276798516,3,-2,22,11,-29,-1,6,22
1622149276798516,0,-5,4,23,27,10,6,22
1622149276813054,3,-2,0,-17,-13,8,-1,-25
1622149276813054,-13,-12,-8,5,-16,-5,-29,13
1622149276821671,-8,1,-12,-12,-22,-19,-6,-17
1622149276821671,7,2,7,-9,29,-2,5,-6
1622149276836698,-1,1,1,18,-15,-1,-1,10
1622149276836698,-3,3,0,-10,-15,-12,13,-5
1622149276836698,8,-8,-6,-12,-14,20,-15,-7
1622149276836698,3,-6,-5,-3,12,-35,23,10
1622149276850921,-16,5,-4,-12,10,-1,-31,1
1622149276850921,-10,1,0,29,16,29,30,1
1622149276857929,6,4,9,19,-12,-3,-16,-16
1622149276857929,-4,0,-11,-33,12,-14,-3,4
1622149276872813,14,5,2,-6,-17,0,24,25
1622149276872813,-8,-4,-10,8,22,-9,47,-1
1622149276881594,-7,-2,-3,-28,-10,-32,-102,-3
1622149276881594,4,-2,-9,5,23,36,49,-5
1622149276896331,-2,0,-2,3,-18,-23,-36,-26
1622149276896331,-4,-4,4,0,6,-13,23,17
1622149276897302,10,-6,-6,16,12,-2,28,12
1622149276897302,-6,0,4,-5,-33,-7,-17,4
1622149276910293,1,-5,6,11,16,-16,-60,-55
1622149276910293,-2,-11,-3,-25,13,13,15,5
1622149276918242,-8,21,4,-2,1,2,11,8
1622149276918242,2,0,-2,8,-5,9,7,-14
1622149276933452,-29,-5,-11,-7,-4,19,6,17
1622149276933452,34,-1,-6,-18,-28,-19,-10,-14
1622149276941398,-22,-3,3,32,33,11,6,5
1622149276941398,-4,-5,-12,-25,-56,-11,-1,-8
1622149276956680,5,-1,1,4,7,-1,7,8
1622149276956680,-2,7,12,-8,0,-11,-60,-13
1622149276956680,8,-4,-8,-11,-5,-8,14,28
1622149276956680,1,5,7,8,4,50,6,-13
1622149276970931,10,-7,-8,1,-2,-55,20,35
1622149276970931,-20,2,0,1,-2,1,-4,-10
1622149276977924,18,1,22,16,5,2,0,-1
1622149276977924,0,-8,-4,-9,29,-5,-31,-10
1622149276992978,5,3,-1,-26,2,27,9,12
1622149276992978,-14,11,5,49,-19,-36,50,11
1622149277001711,2,-4,-12,-23,7,-8,-36,-21
1622149277001711,-1,1,-8,-7,-9,-10,11,2
1622149277016634,-5,-3,4,1,22,28,10,-17
1622149277016634,-3,-3,4,31,21,0,-51,11
1622149277017470,4,-9,-10,-38,-31,2,-4,-32
1622149277017470,2,6,8,27,15,-9,14,3
1622149277031002,15,-4,-13,-11,1,0,3,25
1622149277031002,-5,4,8,10,-31,-33,-4,-30
1622149277038502,-5,-5,-6,-10,5,20,19,4
1622149277038502,4,-8,0,-9,-11,-20,-30,-1
1622149277053470,10,7,-3,-5,-7,3,35,0
1622149277053470,-3,-6,-4,-6,41,28,-45,2
1622149277060743,-3,0,1,0,-12,1,50,7
1622149277060743,-6,-7,-14,-1,1,-22,-9,-19
1622149277076712,-3,1,18,24,10,16,21,15
1622149277076712,9,0,-10,-24,-36,12,-21,-11
1622149277076712,-9,3,-16,-5,14,16,73,-6
1622149277076712,-4,2,21,23,17,-23,-51,31
1622149277090887,4,-6,-10,-5,-20,4,-13,-33
1622149277090887,2,3,7,-28,58,3,19,28
1622149277098537,1,-1,-7,3,-65,-19,7,1
1622149277098537,-16,0,-5,-14,9,37,31,0
1622149277112878,-10,-4,-2,17,26,-11,-22,-6
1622149277112878,-4,-5,1,-4,1,14,-7,-19
1622149277120820,2,-2,15,-10,-39,-21,-2,10
1622149277120820,13,7,0,16,22,-7,-26,3
1622149277135845,1,0,-5,-11,-23,-17,29,-6
1622149277135845,-11,-4,-3,0,-20,27,-2,-1
1622149277136852,3,0,-9,6,32,8,-10,-17
1622149277136852,-12,-3,-4,-10,-39,2,24,-5
1622149277150833,2,-1,14,30,32,14,-23,14
1622149277150833,13,-12,-19,-6,-15,-31,-13,-31
1622149277158022,-9,4,9,-17,-8,-1,-34,14
1622149277158022,-8,-3,4,0,-13,-18,42,-6
1622149277173485,1,-2,-2,-5,-5,32,-7,5
1622149277173485,-4,10,5,12,22,-46,39,14
1622149277181702,2,-8,-4,7,45,8,-59,-15
1622149277181702,-7,1,6,3,-51,27,40,-7
1622149277204851,6,0,14,5,-21,-19,4,-1
1622149277204851,-3,-7,-11,-12,-12,2,-9,0
1622149277204851,2,2,-6,7,25,-1,-17,6
1622149277204851,7,0,4,24,21,16,-20,-11
1622149277210762,-4,4,-9,-25,8,-1,24,15
1622149277210762,-4,2,10,14,-19,16,-29,0
1622149277218512,-2,2,1,-5,9,-8,24,9
1622149277218512,13,-9,-15,-4,8,8,-19,-17
1622149277232940,-18,8,11,-16,33,10,-6,8
1622149277232940,-7,0,-8,5,-51,5,8,-4
1622149277241656,4,0,7,6,23,-5,9,-3
1622149277241656,6,0,0,7,-11,-7,-13,5
1622149277256569,-3,0,-4,-5,5,-9,-13,-30
1622149277256569,-1,-2,-4,-15,1,4,8,4
1622149277256569,0,-7,-7,-1,-36,1,19,5
1622149277256569,-3,-4,1,-3,9,-22,-19,-2
1622149277270949,-1,8,-2,13,-10,11,-1,-20
1622149277270949,-1,-1,8,6,13,-8,-2,6
1622149277277862,0,0,-3,4,-17,12,2,-5
1622149277277862,-4,-3,-11,-19,55,-9,-16,9
1622149277293052,5,-3,-8,1,-62,-29,-1,2
1622149277293052,1,-7,-6,-16,15,28,41,-4
1622149277301702,4,7,6,0,-20,-22,-17,-23
1622149277301702,-17,-2,-2,-15,-25,0,35,14
1622149277315910,-2,-6,0,-10,29,-7,-31,1
1622149277315910,3,-1,-8,-1,7,29,10,11
1622149277323899,-1,-5,-3,4,11,-11,13,3
1622149277323899,7,3,7,-16,6,7,-38,-14
1622149277330946,3,-7,4,2,-32,-2,53,27
1622149277330946,-15,12,-6,4,11,21,-36,-8
1622149277338197,-2,-11,-10,2,-3,-14,-2,3
1622149277338197,6,14,21,17,6,-9,7,6
1622149277352766,-1,-6,-19,-35,-26,-3,-11,3
1622149277352766,5,-4,8,-2,6,-35,-11,-13
1622149277360885,-4,-5,9,15,-18,14,-8,5
1622149277360885,1,4,2,-7,1,-7,40,13
1622149277376001,-7,1,6,26,16,1,-35,-9
1622149277376001,5,-5,-2,-9,-58,-30,10,10
1622149277391960,-10,-1,-11,-24,30,13,21,-4
1622149277391960,4,-4,-4,9,-30,-3,2,13
1622149277393928,-13,-7,-4,-12,10,3,-40,-38
1622149277393928,29,5,1,13,35,6,11,-2
1622149277398518,-19,-6,-2,-18,-19,1,-19,13
1622149277398518,-3,-4,-12,-2,-16,-26,-3,-6
1622149277412765,-7,-1,18,14,21,27,47,2
1622149277412765,-5,1,-1,1,3,-16,-42,-1
1622149277421679,10,-10,-1,-7,24,-7,16,-14
1622149277421679,-5,9,-10,3,-16,6,-32,-10
1622149277435962,2,-2,-5,-4,27,-6,-4,6
1622149277435962,-5,-2,14,21,-26,-3,25,5
1622149277443943,-3,-2,-7,4,3,-16,-47,-10
1622149277443943,5,-4,0,-13,14,14,16,14
1622149277459162,0,-4,-8,2,-8,-1,-13,19
1622149277459162,-3,-3,-5,-10,4,-32,52,3
1622149277459777,-5,-3,-2,20,8,6,-57,-8
1622149277459777,3,-7,0,-14,-41,5,10,1
1622149277472779,2,7,9,12,10,-1,25,-10
1622149277472779,0,-1,-7,-22,-19,-8,-24,-2
1622149277481257,-2,3,4,25,13,-5,7,-1
1622149277481257,-9,-14,-5,8,27,-2,1,9
1622149277495810,-4,4,-21,-64,-94,-18,-5,2
1622149277495810,-12,-2,-1,14,24,24,-16,-10
1622149277510872,15,7,19,16,2,13,23,3
1622149277510872,11,-2,-8,0,8,-3,-2,-3
1622149277519152,-6,-8,-7,22,33,8,15,19
1622149277519152,2,5,-6,-10,9,20,4,-16
1622149277519775,-1,2,12,-7,-60,-24,-4,13
1622149277519775,-1,2,3,8,38,-4,2,-12
1622149277541905,4,-3,-4,3,-9,4,-52,9
1622149277541905,5,-18,-5,-6,1,20,52,11
1622149277542838,-15,18,-21,-36,-11,-12,2,-6
1622149277542838,-1,0,1,7,17,9,-3,-1
1622149277555953,2,-2,8,9,-12,6,33,2
1622149277555953,1,-5,-12,-24,-1,-37,-23,4
1622149277564148,-1,-1,-3,-6,-12,13,-14,5
1622149277564148,4,5,16,6,0,-5,-2,-13
1622149277579033,-7,-2,-13,-13,13,17,33,0
1622149277579033,0,6,30,50,11,10,-15,-26
1622149277579774,-3,-6,-5,-19,18,33,9,0
1622149277579774,4,-3,-11,-16,-9,-49,-10,4
1622149277593006,8,-4,2,-3,16,-15,-11,-6
1622149277593006,-10,-1,-6,8,-1,2,11,13
1622149277600877,6,-7,16,2,-15,6,5,-27
1622149277600877,-12,9,4,-4,-18,-3,-25,-9
1622149277615917,0,-5,-5,0,37,8,19,12
1622149277615917,-8,2,3,-5,4,0,-43,-1
1622149277623925,12,-1,-1,8,-26,-16,69,10
1622149277623925,-20,0,-10,1,24,14,-49,4
1622149277639009,6,3,6,1,-10,-23,-22,-41
1622149277639009,0,4,-9,-21,-4,20,0,12
1622149277639009,-3,-6,0,16,9,-3,31,3
1622149277639009,-3,-4,-3,6,20,28,4,0
1622149277654438,1,-2,-5,0,-25,-3,-2,-17
1622149277654438,-2,-1,-4,0,-16,-24,-7,9
1622149277668399,5,2,25,6,22,15,-12,-5
1622149277668399,-2,-9,-9,6,-13,4,5,-6
1622149277675511,5,7,1,-9,23,11,-10,5
1622149277675511,2,-1,-16,-5,-46,-7,6,-3
1622149277684438,-8,0,-4,7,32,-23,-13,6
1622149277684438,6,-4,4,-5,-46,-7,1,-5
1622149277698419,5,-1,3,5,-5,-35,-5,20
1622149277698419,-1,-2,-4,-19,33,37,-25,2
1622149277699423,-3,3,-5,10,10,-6,30,5
1622149277699423,1,-2,-6,-16,-16,-9,-8,2
1622149277712839,-8,6,3,20,-11,3,3,-5
1622149277712839,2,-7,5,-4,9,-1,21,9
1622149277720806,2,-5,-13,-6,5,-13,-37,-11
1622149277720806,-12,2,-1,28,37,23,21,8
1622149277735810,-5,-3,-5,-9,-29,-35,-25,-20
1622149277735810,-6,0,-6,-34,-2,-6,23,-7
1622149277743799,-3,-6,-4,11,-22,22,-30,-8
1622149277743799,16,1,-16,-22,17,6,59,15
1622149277758780,-2,-1,22,5,1,35,-33,-6
1622149277758780,-3,2,10,56,24,-24,-9,-6
1622149277759753,0,-5,-7,-38,-28,16,13,2
1622149277759753,-5,0,5,23,1,-7,-6,-3
1622149277772804,4,-2,-3,-14,13,1,18,-12
1622149277772804,1,-16,-14,-20,-2,42,16,15
1622149277780906,-5,3,-8,0,-23,9,6,-6
1622149277780906,4,12,12,28,1,4,11,-4
1622149277795510,-2,-4,-11,-19,19,-1,5,9
1622149277795510,16,0,3,6,-65,-23,-28,8
1622149277819800,-23,-1,-5,9,26,-5,14,6
1622149277819800,-18,-8,0,-27,-3,16,47,-10
1622149277821802,18,-5,2,11,11,-19,5,17
1622149277821802,-9,3,-5,16,-2,-7,-38,-15
1622149277822805,11,2,-4,-29,-12,-21,-42,0
1622149277822805,0,2,12,-27,-17,11,26,15
1622149277832669,-13,-4,-8,-8,-8,0,37,12
1622149277832669,1,1,4,8,10,-10,-15,-12
1622149277840669,6,-4,2,26,34,23,-11,7
1622149277840669,0,-4,-18,0,-10,-44,-16,-2
1622149277855635,-2,-5,-15,-36,-25,29,-3,-7
1622149277855635,-7,6,2,14,4,-12,1,-11
1622149277863617,7,0,3,11,-2,-27,-17,11
1622149277863617,6,-4,-16,-25,9,5,-16,-15
1622149277878551,-12,-2,-2,16,1,25,33,14
1622149277878551,3,6,0,-17,2,1,34,13
1622149277879550,-6,1,-4,-1,-19,-15,-57,-48
1622149277879550,1,-5,3,21,13,13,-5,3
1622149277893033,-7,-1,6,4,1,-33,-26,-13
1622149277893033,2,4,1,-3,26,-11,11,18
1622149277900981,2,-2,5,6,-43,14,16,4
1622149277900981,16,-2,2,-8,-28,-11,-21,-1
1622149277915900,-27,-6,-13,-31,28,-22,-21,-19
1622149277915900,-1,-4,0,10,-15,-11,6,-9
1622149277924218,2,-1,-2,-6,34,8,2,-11
1622149277924218,1,4,11,10,-19,-38,-61,-1
1622149277946613,12,0,11,14,-6,13,21,-16
1622149277946613,-4,1,-1,-15,23,4,-8,1
1622149277947586,-1,-3,-8,-4,-5,-33,-6,13
1622149277947586,5,-3,-5,17,0,47,47,1
1622149277952709,2,-3,-9,-4,-18,7,-29,2
1622149277952709,0,2,20,-1,19,5,10,1
1622149277960878,-2,-4,-13,-7,23,32,0,11
1622149277960878,0,4,22,-19,-26,-17,13,8
1622149277975844,-1,1,-6,-5,-10,-23,-10,2
1622149277975844,0,2,-3,8,-17,31,14,-6
1622149277983872,-2,-9,-9,-7,29,-8,8,11
1622149277983872,-4,1,4,-25,8,0,-23,-17
1622149277998862,2,2,4,42,-1,7,17,11
1622149277998862,-6,-8,-5,-7,-6,-7,-24,12
1622149277999837,3,5,-5,-12,-33,-4,32,5
1622149277999837,-4,1,-8,14,56,26,-60,-18
1622149278012819,8,1,-4,-48,-69,-15,64,26
1622149278012819,-11,0,0,7,4,8,4,-14
1622149278020889,-7,-1,8,10,37,8,27,10
1622149278020889,1,4,5,5,-13,8,-9,-6
1622149278035986,2,1,7,27,6,-28,1,15
1622149278035986,1,1,-6,-11,0,-10,0,-5
1622149278043968,10,1,-3,1,-20,15,-17,-7
1622149278043968,-12,-5,5,-2,10,-10,19,-4
1622149278067305,10,0,-2,3,16,2,-28,-11
1622149278067305,-1,-4,-1,-7,-1,3,57,11
1622149278068124,-9,6,9,26,-42,-32,-75,-47
1622149278068124,-9,-16,-23,-31,-11,6,12,-7
1622149278073456,0,4,20,16,9,11,-24,7
1622149278073456,5,2,-1,6,7,-8,-16,-32
1622149278080907,-7,0,-5,13,11,19,29,34
1622149278080907,4,-1,-2,-8,-16,-19,17,7
1622149278095536,-2,1,-9,-3,13,-20,-13,-23
1622149278095536,26,-8,-2,0,-13,7,-12,11
1622149278103539,-21,11,19,-1,9,3,2,-1
1622149278103539,7,-5,-7,-4,-25,-4,16,6
1622149278118474,-12,1,3,9,26,30,0,-13
1622149278118474,5,6,3,1,0,-39,-41,-8
1622149278119472,9,-6,-9,-38,-55,-25,0,17
1622149278119472,-5,-1,-9,32,46,15,16,-3
1622149278133472,-5,-1,7,-9,-6,10,-6,-6
1622149278133472,-8,-3,-5,-17,10,2,0,6
1622149278140416,5,0,4,14,12,8,-1,-1
1622149278140416,-9,-10,-6,-16,-4,-1,-40,-9
1622149278155475,5,5,-5,9,-19,26,13,3
1622149278155475,-19,-3,1,6,-7,-31,-16,-13
1622149278163873,0,0,6,-29,19,13,11,1
1622149278163873,5,-7,-5,1,-40,-5,-27,7
1622149278178757,-14,-5,-5,3,-33,36,36,-2
1622149278178757,12,-1,-5,12,9,-14,-14,-9
1622149278179756,28,0,1,-17,11,6,53,42
1622149278179756,-22,7,10,17,29,-18,-23,-11
1622149278192771,-4,-12,-5,-8,-10,-11,-18,-6
1622149278192771,-8,0,-1,18,-32,8,45,11
1622149278200795,10,-3,0,-20,2,18,-4,-2
1622149278200795,-1,6,-5,-1,12,-33,1,-7
1622149278215783,7,-4,-5,2,25,-5,20,14
1622149278215783,4,-3,-2,2,-10,18,-21,0
1622149278224272,-7,0,7,31,29,-20,7,-10
1622149278224272,1,-4,-4,-14,-48,-11,-5,2
1622149278238406,-6,-2,-7,-22,24,5,-6,1
1622149278238406,-2,-2,-4,-12,-13,-9,1,3
1622149278246387,-2,2,-4,34,26,-19,-39,-33
1622149278246387,-2,2,1,-4,-22,14,11,-27
1622149278253373,3,-3,0,-23,-1,3,-7,0
1622149278253373,-3,-9,-18,-31,23,16,-35,-5
1622149278260769,-4,4,-4,19,-34,-28,13,0
1622149278260769,4,0,6,12,18,9,22,10
1622149278275896,-2,2,-7,-11,-10,-3,-23,-9
1622149278275896,-8,-2,9,-18,5,-8,-9,-11
1622149278291200,-16,-13,-8,-1,-23,-5,-29,-8
1622149278291200,-6,-3,-20,-24,5,-10,-4,1
1622149278298184,16,11,13,33,50,5,5,4
1622149278298184,0,4,10,-11,-44,-1,10,22
1622149278306606,-1,-5,-6,8,7,6,-2,-8
1622149278306606,4,1,-1,13,1,-2,11,2
1622149278313203,-5,-3,1,10,14,-11,-5,-5
1622149278313203,3,3,2,3,-1,-8,22,10
1622149278328663,-7,4,-4,-7,-32,-13,-24,-3
1622149278328663,-1,-2,2,-3,50,11,32,7
1622149278336000,2,0,3,-1,-43,-21,-55,-17
1622149278336000,-9,0,-9,24,28,13,50,-6
1622149278343981,2,-9,-10,-28,4,4,9,2
1622149278343981,0,-2,2,-12,-21,4,-44,-10
1622149278366772,-2,1,1,6,16,-27,-3,4
1622149278366772,12,6,-1,-5,20,20,34,-8
1622149278367766,-6,-6,-2,8,13,-20,3,17
1622149278367766,6,-2,6,7,-19,28,9,21
1622149278372791,-17,-3,-19,-15,-14,-16,-9,1
1622149278372791,1,-5,10,7,6,25,11,-1
1622149278380224,5,4,15,-2,15,-13,11,-1
1622149278380224,6,-3,-6,7,6,-28,-30,11
1622149278395898,-8,-3,-7,-23,-27,-23,-10,-19
1622149278395898,-1,-2,6,13,11,14,13,5
1622149278403806,2,4,-2,-22,-11,2,-4,-6
1622149278403806,-1,5,7,10,18,-1,-7,-1
1622149278417958,3,-6,-7,-7,13,1,-2,0
1622149278417958,2,-2,-2,-12,-40,11,-10,-4
1622149278425804,-5,-2,7,7,27,-29,10,9
1622149278425804,5,2,-1,18,-18,1,12,8
1622149278449401,10,6,9,-6,3,-8,23,-22
1622149278449401,1,-2,0,2,-19,-27,-33,16
1622149278450400,-9,-5,-10,12,-28,22,-20,-10
1622149278450400,0,-1,-3,-9,-3,12,62,10
1622149278455384,-3,6,-1,-21,-26,5,-36,13
1622149278455384,-4,-3,-4,-3,40,0,4,-20
1622149278463362,9,2,4,-1,-8,-4,-52,-14
1622149278463362,-7,-2,-5,15,8,-14,2,-4
1622149278487282,11,-5,-2,4,-12,21,18,-4
1622149278487282,-10,-1,-2,-8,-26,-55,-7,-6
1622149278487282,8,-2,-11,-11,7,20,-15,17
1622149278487282,-17,-4,-3,0,9,21,11,-28
1622149278502059,11,2,17,44,20,2,-2,15
1622149278502059,-3,2,-2,-10,-2,14,-15,-2
1622149278502327,-12,-4,-13,-40,-33,-9,37,18
1622149278502327,14,-1,10,24,1,-22,20,29
1622149278515751,-8,-12,-19,-25,-25,24,-42,-2
1622149278515751,-9,5,14,20,40,12,-6,-7
1622149278523793,11,0,-11,-4,-48,5,15,-16
1622149278523793,-11,-3,10,1,15,1,0,-11
1622149278537511,2,-5,2,8,1,-5,17,3
1622149278537511,-5,11,-12,-12,6,5,-23,3
1622149278546489,3,-1,15,2,33,28,-11,-11
1622149278546489,3,0,-3,-23,-46,-3,-5,4
1622149278569653,-5,0,-3,14,19,-13,27,12
1622149278569653,6,-4,0,2,-1,-19,-22,-29
1622149278570646,-2,3,6,11,1,18,19,-3
1622149278570646,-16,-3,-12,-34,-35,-10,-24,-12
1622149278575662,13,-4,-4,2,41,-7,46,-3
1622149278575662,3,1,7,21,-47,-6,-45,6
1622149278583616,-5,-3,-10,-2,17,23,-23,13
1622149278583616,-6,0,10,12,24,-8,60,0
1622149278607449,-2,1,-9,-7,4,-4,11,-15
1622149278607449,-1,-2,4,2,-3,-17,14,6
1622149278607449,-6,-2,0,9,-2,-15,-10,-17
1622149278607449,7,0,-7,-20,-1,26,-12,6
1622149278621818,-6,4,1,4,13,21,7,-2
1622149278621818,3,-6,-10,8,12,-9,25,-19
1622149278622800,-20,-4,3,-5,-21,-5,-43,-8
1622149278622800,-5,7,-1,-1,-30,-7,9,-12
1622149278651840,-1,-3,8,-3,-31,-5,-6,18
1622149278651840,-3,-6,-22,-22,2,29,-18,-7
1622149278652802,7,2,10,9,65,-3,24,-12
1622149278652802,15,5,-9,-14,-28,4,6,12
1622149278657789,-9,-2,8,18,-2,-15,-17,3
1622149278657789,-1,-6,-7,-19,-16,-3,21,6
1622149278665767,6,-3,0,9,17,-14,-3,-9
1622149278665767,0,-5,-1,-12,11,-5,-13,6
1622149278681656,-7,5,8,14,6,-5,-43,-37
1622149278681656,2,-3,-7,-18,11,26,-5,-3
1622149278682329,9,6,13,20,-4,-12,32,10
1622149278682329,-12,-8,-6,-10,7,-10,-35,-21
1622149278695321,11,-9,-14,-14,-15,7,23,27
1622149278695321,7,12,18,59,49,31,-30,14
1622149278703336,-22,-5,-16,-48,-53,21,16,-12
1622149278703336,12,0,5,12,-8,0,-18,1
1622149278718566,2,11,25,61,31,-22,7,-1
1622149278718566,-9,-16,-35,-81,-40,-11,33,0
1622149278725851,6,0,4,36,6,-1,-20,3
1622149278725851,3,-3,-6,-37,28,8,8,7
1622149278742158,-10,-10,-3,42,-44,-17,-7,-9
1622149278742158,0,8,15,12,23,-3,-36,-38
1622149278742470,8,8,-9,-11,4,-9,42,20
1622149278742470,-7,-5,1,0,-26,-25,-26,-5
1622149278755438,7,-3,0,-12,14,0,-23,-13
1622149278755438,10,3,6,11,14,-1,17,31
1622149278763543,-30,-6,-2,-21,-38,-5,3,-15
1622149278763543,1,4,8,37,37,30,-9,-1
1622149278777868,-1,0,-10,-48,-27,-6,30,8
1622149278777868,7,1,0,-3,-27,-13,1,-5
1622149278786736,1,-2,4,-1,23,18,1,20
1622149278786736,5,1,1,20,21,-17,-1,4
1622149278801722,-9,0,-15,-8,-24,38,-8,-5
1622149278801722,-10,-2,26,14,-6,-11,27,21
1622149278802542,4,-3,-6,-14,-10,-8,-39,-8
1622149278802542,-2,3,0,1,-9,8,-8,4
1622149278815659,-15,11,-5,-13,18,23,2,-23
1622149278815659,-4,-10,-8,-3,3,-13,-18,-4
1622149278824240,6,-6,-1,6,-3,-29,-11,2
1622149278824240,-1,2,3,-4,25,7,14,8
1622149278838586,-2,2,2,5,-21,0,-9,0
1622149278838586,3,-3,-5,-2,20,9,22,8
1622149278846593,-7,-1,-3,-11,-8,4,-31,-11
1622149278846593,-4,-6,-15,-9,18,2,12,-9
1622149278861655,-10,-1,8,21,14,-27,8,6
1622149278861655,-14,-5,-8,-23,-34,0,-20,-16
1622149278861655,7,-6,-14,-22,31,-1,-1,7
1622149278861655,-1,2,2,12,-24,-16,33,-6
1622149278875568,8,8,4,7,0,13,-16,16
1622149278875568,-7,-4,-1,20,28,32,20,11
1622149278883597,7,-6,-1,-6,-61,-42,-8,-1
1622149278883597,-3,7,-1,-26,-18,-2,5,8
1622149278898538,4,-1,-1,-15,7,20,-14,-5
1622149278898538,-2,1,-8,-10,-42,-26,-22,2
1622149278906547,5,4,7,44,36,27,27,-1
1622149278906547,3,-5,3,-14,-12,-6,-30,-14
1622149278921524,6,-6,1,-19,15,-29,70,32
1622149278921524,-15,7,6,21,-15,4,-37,5
1622149278922472,11,-2,-6,-22,-6,3,54,-3
1622149278922472,-3,-5,-8,2,11,-13,-31,-13
1622149278935862,-13,-9,-5,-2,-23,-5,-17,0
1622149278935862,10,6,-4,-20,2,24,46,42
1622149278943837,-12,0,2,5,8,-46,1,-14
1622149278943837,-1,-2,11,27,-8,-20,-56,6
1622149278958589,14,-3,-12,-31,5,24,29,4
1622149278958589,5,-8,-2,-5,2,-3,-20,-29
1622149278974210,-11,4,-11,3,0,12,18,8
1622149278974210,2,12,20,25,13,17,-29,1
1622149278980897,6,-9,-17,-24,-24,15,7,-1
1622149278980897,-4,9,0,17,27,0,40,-2
1622149278981837,1,0,-4,4,-12,1,-23,2
1622149278981837,0,-6,-6,-27,14,11,-36,-32
1622149278995819,-3,-1,3,22,18,19,33,-8
1622149278995819,-10,-4,-4,-27,-41,-34,-31,-33
1622149279002904,-5,-6,-4,-7,18,7,-4,2
1622149279002904,5,2,3,23,-3,8,21,12
1622149279018562,1,-3,-1,-4,18,-4,-29,-11
1622149279018562,-9,-5,-14,3,35,9,6,-8
1622149279025846,6,3,13,23,2,-3,16,20
1622149279025846,-5,-3,-3,-3,-6,11,40,-4
1622149279041651,-6,2,0,-2,-25,-28,-50,0
1622149279041651,10,-7,7,-10,29,9,30,14
1622149279042328,-16,23,1,-8,-26,2,-26,-41
1622149279042328,3,-10,0,9,18,-3,22,30
1622149279057319,2,1,7,23,13,9,64,7
1622149279057319,-2,-1,-9,-25,-66,-56,-62,-2
1622149279063276,12,-4,8,23,50,28,-6,4
1622149279063276,-3,0,-3,29,12,-23,13,0
1622149279078447,-10,6,-2,-35,-15,26,-22,4
1622149279078447,5,-6,6,0,-13,13,23,-2
1622149279086755,2,0,3,-1,-8,-13,29,15
1622149279086755,-5,0,-6,-14,-19,-4,-55,-13
1622149279100744,5,-3,-5,-34,26,-1,-4,2
1622149279100744,-3,3,-6,-8,-38,-26,69,-6
1622149279101749,15,0,-5,-2,19,-22,-79,11
1622149279101749,-3,3,23,6,8,0,66,4
1622149279115736,4,-7,-2,33,-2,-18,-30,-13
1622149279115736,-15,3,-2,-11,9,9,-35,-8
1622149279122835,-14,-6,-9,-1,3,21,38,-4
1622149279122835,13,6,3,-20,-17,-7,-52,1
1622149279137928,-11,-7,-7,-3,6,-21,10,-42
1622149279137928,9,1,6,29,29,28,-20,5
1622149279145935,-17,-10,-1,7,-17,-38,-15,2
1622149279145935,7,-7,-15,-25,5,29,14,2
1622149279161299,-6,0,-6,9,-15,-20,-15,7
1622149279161299,6,0,10,3,6,26,26,2
1622149279162298,-9,0,-12,-31,-17,-49,-29,-12
1622149279162298,-10,-3,-5,10,-19,8,-29,-26
1622149279176039,1,1,-3,1,21,-4,46,18
1622149279176039,5,-3,-11,13,7,-6,2,17
1622149279183543,8,0,4,26,25,5,20,-2
1622149279183543,22,7,31,-9,-3,22,8,-4
1622149279198553,-23,-2,-3,-9,-16,-21,-55,-6
1622149279198553,-1,-6,-1,-2,-15,-6,0,12
1622149279206811,-1,10,4,-8,2,9,14,-7
1622149279206811,9,0,-23,3,33,16,19,1
1622149279221529,12,-5,17,17,-50,9,-2,8
1622149279221529,-3,8,0,-47,28,-20,-12,9
1622149279228952,6,-5,3,-3,-42,29,9,-11
1622149279228952,-5,-8,-11,-2,4,-29,61,15
1622149279243791,1,0,-2,1,30,-3,-67,4
1622149279243791,-6,-3,-9,8,-41,-6,-2,-4
1622149279244816,13,2,-10,-5,15,4,12,3
1622149279244816,-23,2,15,22,-6,-1,-26,-4
1622149279258602,8,-11,-7,-23,4,22,-5,-9
1622149279258602,11,7,-3,11,-9,-35,27,4
1622149279266824,-1,-5,-2,-14,20,13,3,6
1622149279266824,10,-2,-10,-18,-23,4,10,-7
1622149279280456,-22,5,-1,3,-30,-19,1,5
1622149279280456,-8,-8,0,31,46,26,-21,-16
1622149279289254,-2,-3,-4,-55,-11,39,53,4
1622149279289254,-2,0,0,15,12,-53,-77,-15
1622149279295786,14,1,1,13,-10,-41,-4,0
1622149279295786,-2,-8,-1,16,16,21,59,15
1622149279303586,-10,0,2,18,-23,7,-16,-10
1622149279303586,-5,-9,-20,-39,29,12,0,11
1622149279318615,4,-9,13,-6,-24,-32,-29,-36
1622149279318615,-8,12,-9,10,-17,12,-18,-11
1622149279334311,20,4,28,32,2,-9,-31,-9
1622149279334311,-5,0,-17,-1,-11,5,33,18
1622149279340322,9,1,0,9,50,10,13,4
1622149279340322,0,-7,-10,-34,-21,-1,-5,-8
1622149279348275,-3,-1,-1,29,13,11,-18,7
1622149279348275,-4,1,6,5,-19,-20,2,1
1622149279363827,1,7,-5,-26,36,13,6,5
1622149279363827,2,-5,0,-13,-8,-12,-41,-10
1622149279364820,-22,0,-4,10,-2,22,25,39
1622149279364820,-8,-17,3,4,-8,-4,-40,-29
1622149279377809,8,16,2,19,1,16,62,19
1622149279377809,-5,-2,-3,-17,22,-3,11,-15
1622149279385874,23,-2,0,-14,-10,19,9,32
1622149279385874,0,-6,-5,7,-28,-3,25,-18
1622149279400831,-18,-4,4,-17,23,42,-54,-16
1622149279400831,20,5,14,27,51,-18,28,31
1622149279408834,-13,-5,-17,-22,-37,-11,-19,-27
1622149279408834,14,9,12,36,17,-12,0,17
1622149279424260,3,-2,-7,-24,-45,16,5,2
1622149279424260,-8,-4,-3,-1,-30,-6,-27,-4
1622149279424260,-9,-10,-8,-16,14,-2,-28,-41
1622149279424260,-16,11,-7,28,10,-5,3,7
1622149279437968,5,-3,1,-18,10,9,2,21
1622149279437968,-7,-3,8,37,-3,7,-3,-36
1622149279445951,2,4,-7,-21,-16,-15,-2,17
1622149279445951,0,0,6,-21,-23,4,-1,22
1622149279460819,0,-5,-5,23,16,11,32,-2
1622149279460819,-5,1,-3,-11,-5,22,-37,1
1622149279469227,12,11,30,36,16,-14,3,-4
1622149279469227,6,-10,-16,-31,11,9,60,4
1622149279484241,6,4,15,-3,26,10,-34,12
1622149279484241,-4,-9,-9,-35,-44,-11,20,4
1622149279484241,-10,7,-3,37,20,-6,10,-3
1622149279484241,-1,4,11,-34,-20,14,-18,1
1622149279498569,6,-2,-4,10,23,-29,-12,-41
1622149279498569,-12,-3,1,-4,-13,31,2,-17
1622149279506648,6,-6,-6,-22,7,-13,-14,16
1622149279506648,-8,1,1,7,-38,-8,21,-33
1622149279521076,-2,1,-2,-15,-12,-33,-25,32
1622149279521076,4,7,22,29,11,18,13,13
1622149279529211,-8,-13,-24,-24,11,1,19,-19
1622149279529211,12,-3,-11,8,-14,39,-25,-6
1622149279543946,-7,-3,-3,18,8,-20,62,9
1622149279543946,-1,6,-4,-27,-2,-8,9,-6
1622149279544942,-2,-7,2,-3,-14,-16,-57,7
1622149279544942,1,4,5,9,21,-19,11,1
1622149279557905,-10,0,-7,-4,-9,30,-12,-13
1622149279557905,-4,-5,-5,11,-15,2,-7,9
1622149279565887,5,-8,2,-13,21,19,12,-22
1622149279565887,-21,8,-14,-16,-48,-6,-17,27
1622149279581004,12,5,26,37,-27,-8,-57,-18
1622149279581004,26,-5,-13,-13,14,11,84,12
1622149279589002,-23,-6,6,7,7,-51,-35,-15
1622149279589002,-7,1,-1,4,31,18,10,26
1622149279612339,3,-3,-10,9,-3,17,12,-2
1622149279612339,-5,2,-3,-19,-22,-38,-24,-3
1622149279612339,9,1,-4,16,-23,22,-15,-8
1622149279612339,4,-7,2,-24,28,0,12,-18
1622149279618704,-5,2,1,28,-13,37,30,-3
1622149279618704,-9,3,1,6,39,-20,-63,-17
1622149279626442,-9,-3,-13,-9,-25,1,56,2
1622149279626442,12,0,1,16,-5,-17,-24,11
1622149279640877,-12,-1,12,-10,-20,-6,41,7
1622149279640877,-3,-3,0,-6,45,-35,-40,-12
1622149279648829,2,1,1,24,-30,31,0,22
1622149279648829,9,-17,-13,-12,12,-7,-11,-5
1622149279664268,-13,29,1,-1,-1,-45,43,-2
1622149279664268,10,-3,-2,-3,-23,31,6,8
1622149279664268,-13,2,4,-3,34,-6,2,3
1622149279664268,-6,-3,3,21,0,-4,-20,-16
1622149279678711,9,-9,-1,1,10,-24,-15,6
1622149279678711,-13,-1,-10,-41,-52,-24,-66,-9
1622149279686447,13,9,22,19,17,38,80,20
1622149279686447,-8,-3,-1,10,17,-11,-47,-18
1622149279700909,15,-9,-10,-8,14,-11,-18,-25
1622149279700909,-13,1,4,23,7,30,26,0
1622149279709246,4,-6,-10,-21,7,-25,-19,1
1622149279709246,-8,5,3,-6,-49,2,17,13
1622149279724293,2,1,5,6,5,10,9,9
1622149279724293,7,-10,-1,18,20,12,-8,0
1622149279724293,18,9,-1,-30,-16,3,-39,-27
1622149279724293,-20,-1,-8,-8,14,-28,60,28
1622149279738704,-12,-2,3,-4,-11,3,-43,-9
1622149279738704,24,-3,2,29,27,17,53,29
1622149279746685,-1,9,5,11,1,-15,15,1
1622149279746685,6,-1,-6,-18,-34,4,-17,-29
1622149279760905,-5,-6,-11,20,21,-8,-18,6
1622149279760905,-6,-2,1,-15,-1,-16,35,-2
1622149279769262,-2,-2,6,-1,4,-11,-19,-4
1622149279769262,8,2,2,-1,14,9,13,7
1622149279784253,-1,-4,-7,-12,-8,-36,-9,2
1622149279784253,-11,-3,-8,2,28,41,-2,-20
1622149279784253,3,-5,1,-5,-48,-34,-11,8
1622149279784253,-4,1,12,8,9,8,-6,-6
1622149279798627,-5,-6,-8,-7,19,15,3,0
1622149279798627,4,-2,-9,-18,-7,-3,-7,-31
1622149279806812,-11,3,-23,-25,-22,-19,16,43
1622149279806812,3,0,12,25,27,11,9,-11
1622149279820936,-14,-6,1,-5,-2,52,3,0
1622149279820936,18,6,-2,7,-47,-61,-4,14
1622149279828861,0,-7,17,26,37,29,0,-2
1622149279828861,-4,8,-7,-2,-1,11,-6,-4
1622149279843792,-9,9,-3,-3,-28,-66,-20,-7
1622149279843792,6,-2,5,3,32,32,36,22
1622149279851772,4,-5,-19,-20,-46,-8,-26,-24
1622149279851772,-4,11,24,14,11,-14,6,1
1622149279857780,9,-6,-4,4,-6,21,36,10
1622149279857780,-16,-3,-2,3,2,6,-77,-2
1622149279866731,7,1,3,22,9,8,34,-6
1622149279866731,0,-7,-11,-15,7,4,-15,0
1622149279889905,-2,1,7,-33,-7,7,13,-19
1622149279889905,-5,-4,-12,-2,-21,0,2,0
1622149279889905,1,0,35,9,33,9,8,0
1622149279889905,-2,-6,-12,7,-11,-12,-21,2
1622149279903888,8,4,15,17,24,17,12,19
1622149279903888,-14,2,-2,-1,-18,7,-39,-35
1622149279904862,0,-5,-17,6,-15,-49,-35,-59
1622149279904862,-1,-4,-11,-58,-8,19,23,18
1622149279918624,5,-2,3,4,-7,-26,2,13
1622149279918624,6,6,16,21,11,2,0,2
1622149279925876,-32,-4,-12,-11,8,-2,-8,-6
1622149279925876,5,0,-2,0,9,7,-26,-14
1622149279941048,9,-12,-16,-5,-43,-15,29,12
1622149279941048,-12,-9,6,24,12,-24,-12,7
1622149279949028,4,18,2,-24,34,47,-2,-8
1622149279949028,-5,-9,-9,-5,-30,-5,66,13
1622149279964292,-10,-8,-12,-11,27,9,-104,-42
1622149279964292,7,15,12,-4,-54,-10,25,-2
1622149279964292,6,-3,4,25,-10,-28,10,20
1622149279964292,-5,-2,-5,1,39,20,4,12
1622149279977878,5,-1,-16,-38,-35,-1,-1,-8
1622149279977878,-5,2,4,22,32,22,0,-5
1622149279986791,2,-15,-28,-45,-29,-11,14,3
1622149279986791,12,8,34,51,23,3,-8,4
1622149280000898,-16,-6,1,7,-43,-17,-12,-4
1622149280000898,15,-5,-7,10,44,-4,-8,-1
1622149280009274,9,10,4,-11,-29,-11,8,6
1622149280009274,-28,-9,-11,-14,-23,4,-29,-5
1622149280024241,6,7,2,-31,34,11,71,11
1622149280024241,-8,2,11,31,-18,-31,-99,-26
1622149280024241,7,-3,-7,-6,47,32,6,0
1622149280024241,8,0,8,5,-30,-5,0,-4
1622149280038575,-12,-2,-8,-11,-14,32,14,9
1622149280038575,-8,-1,-4,-9,-3,1,25,25
1622149280046581,-1,-5,6,27,33,7,0,4
1622149280046581,0,-2,-11,-31,-40,-13,-27,-9
1622149280069852,9,-3,5,26,32,-10,5,-6
1622149280069852,-6,3,-7,-28,-9,-19,12,10
1622149280069852,-12,-1,-11,-6,-8,22,-5,-8
1622149280069852,23,1,4,4,7,-9,-19,-4
1622149280084316,-4,-3,1,24,15,12,-12,-3
1622149280084316,5,2,1,-10,5,-1,60,-2
1622149280084316,8,-4,-15,-25,-37,-5,-19,28
1622149280084316,-22,-4,5,4,15,-9,-7,-29
1622149280098617,8,5,-3,-5,-21,-16,10,10
1622149280098617,3,0,1,11,35,-9,-15,4
1622149280106837,-2,1,7,-10,-32,7,10,-8
1622149280106837,6,-2,-9,37,38,-8,4,7
1622149280120377,-4,1,-10,6,-26,4,-18,-2
1622149280120377,1,-3,-2,-33,25,5,47,37
1622149280129259,6,-7,-9,-19,-14,24,-36,-17
1622149280129259,-9,2,5,-11,-25,-4,3,-3
1622149280143268,1,5,10,37,30,-23,-29,-6
1622149280143268,-4,-2,-12,-30,-23,25,-1,-13
1622149280151344,-7,-3,2,17,44,-6,9,16
1622149280151344,3,5,9,7,3,19,26,-27
1622149280158582,3,-9,0,8,-28,-2,-76,3
1622149280158582,-14,18,8,-16,-10,-38,55,-2
1622149280166837,5,-4,11,19,33,3,28,48
1622149280166837,27,2,-9,-22,-32,10,19,5
1622149280180983,-26,-4,1,0,-1,12,8,2
1622149280180983,-2,-6,-12,-18,-9,4,-40,-17
1622149280189271,-1,-1,2,25,-4,-71,-11,-13
1622149280189271,-9,-6,-6,-10,-2,-1,-59,12
1622149280203578,15,5,15,8,-3,-7,36,34
1622149280203578,-15,-5,-4,11,0,26,-23,-11
1622149280211774,8,-5,0,-25,35,13,31,3
1622149280211774,-4,1,-12,1,-5,-14,-47,-25
1622149280218704,0,1,-6,2,15,12,36,-2
1622149280218704,-5,-7,-1,-24,-44,12,32,6
1622149280225880,0,2,0,6,15,-42,-74,-25
1622149280225880,-15,-5,-8,-25,-8,7,46,-6
1622149280241048,0,-1,-4,23,24,-9,-48,18
1622149280241048,11,-2,-7,14,-30,29,95,4
1622149280249052,12,-5,4,-24,-18,-13,-53,-5
1622149280249052,-30,-3,-2,7,-17,-20,-4,-10
1622149280263164,2,0,-6,-23,-20,12,20,-8
1622149280263164,10,-5,17,26,34,-55,-39,-15
1622149280271828,-10,12,0,3,-22,45,32,18
1622149280271828,8,4,0,1,-1,21,34,17
1622149280278709,9,-3,0,-10,-10,-24,16,-7
1622149280278709,0,-1,-12,-8,20,-2,-39,2
1622149280286812,-9,-1,4,17,-47,2,10,-12
1622149280286812,8,-1,4,-5,43,-14,-45,-8
1622149280301101,-10,-2,-8,-28,15,36,41,-14
1622149280301101,1,-9,-4,-18,-46,-53,-8,6
1622149280309028,-4,-2,3,3,32,14,-5,-5
1622149280309028,-4,-1,-7,2,16,7,1,-2
1622149280323564,16,4,11,-4,-19,-4,2,-9
1622149280323564,-30,-3,-2,-1,18,-2,-41,-8
1622149280331772,12,0,3,18,-33,-12,-18,-9
1622149280331772,2,3,9,6,6,-6,44,12
1622149280346809,1,-2,-12,-30,30,40,23,27
1622149280346809,-14,0,-2,-5,-8,-10,-4,-3
1622149280347782,-16,1,5,19,-7,41,3,-9
1622149280347782,12,-12,-16,3,36,2,-2,5
1622149280360775,-7,0,-5,-35,-99,-37,17,1
1622149280360775,17,5,25,24,0,50,-35,3
1622149280368886,-13,-8,-7,-11,12,-40,1,-45
1622149280368886,-1,2,-2,12,-48,-9,62,35
1622149280383446,12,3,1,-11,41,13,-35,-5
1622149280383446,0,-5,-14,-1,9,-1,9,-2
1622149280391398,-6,2,5,5,-11,0,19,-11
1622149280391398,-6,-6,0,2,82,-15,-38,7
1622149280406795,3,-15,-10,-6,-89,-1,10,-8
1622149280406795,-2,7,3,-16,-13,0,-15,10
1622149280406795,-3,2,-5,23,40,-2,59,13
1622149280406795,5,1,0,2,9,48,2,-6
1622149280421020,-9,-3,-3,17,-23,-29,-15,0
1622149280421020,18,-4,-3,-39,35,3,2,-10
1622149280429288,-26,-2,-6,8,-10,3,-34,10
1622149280429288,17,-2,12,2,-6,-23,4,-4
1622149280443388,0,1,10,8,57,35,15,-10
1622149280443388,-6,-4,2,16,-39,-41,-29,-12
1622149280451366,8,0,-15,-15,-8,24,-7,29
1622149280451366,1,2,8,13,-28,18,41,36
1622149280466352,-15,-2,-4,-8,31,-27,-63,-57
1622149280466352,14,0,5,30,35,20,44,30
1622149280467323,1,-3,3,-53,-27,15,-40,-16
1622149280467323,-9,-6,-3,-8,-8,-30,27,8
1622149280481084,6,4,5,5,-10,-18,-63,0
1622149280481084,7,5,8,43,23,30,69,1
1622149280489235,-7,-5,-8,-9,-6,-18,-18,7
1622149280489235,-15,0,-2,22,13,8,-5,-26
1622149280502773,4,0,-3,-3,18,11,-19,4
1622149280502773,-9,-4,-9,-5,6,-22,-2,-8
1622149280511719,7,-9,1,1,-37,12,45,6
1622149280511719,-7,10,-1,-45,10,-17,-66,-16
1622149280525959,-4,-4,1,41,13,-9,39,-9
1622149280525959,-1,-2,-10,-7,-40,-8,0,30
1622149280526959,10,6,-6,-4,17,4,5,-25
1622149280526959,-3,-7,10,10,3,25,-30,0
1622149280540832,-3,5,-6,-13,5,6,38,-6
1622149280540832,-2,0,-7,7,8,-2,-47,-2
1622149280564978,2,-2,-2,-11,-7,-16,30,-1
1622149280564978,4,-1,7,-2,-28,-14,-24,-5
1622149280565839,-7,4,-5,-8,44,-17,15,4
1622149280565839,37,2,6,15,0,38,-3,-13
1622149280571828,-29,-5,3,1,-38,-17,9,3
1622149280571828,-3,-3,-16,-35,-7,6,-18,1
1622149280586738,0,-5,-1,2,7,-3,5,6
1622149280586738,-8,-8,-9,-26,-31,1,-4,-3
1622149280586738,10,0,3,13,31,9,-26,-13
1622149280586738,1,-1,-10,1,-20,-36,3,-1
1622149280601033,-8,-3,-11,11,5,5,4,28
1622149280601033,-2,4,11,-12,12,-3,-12,-3
1622149280608758,2,3,11,24,47,-3,38,5
1622149280608758,-20,-8,-17,-30,-58,19,-7,-14
1622149280623672,12,1,18,8,-16,-1,21,11
1622149280623672,-8,-3,-5,-1,16,-8,-36,-5
1622149280631763,-1,-7,-1,23,-15,-8,2,7
1622149280631763,2,1,1,-32,-1,-6,3,3
1622149280654953,4,7,5,10,29,-11,3,-5
1622149280654953,-20,-11,-14,-13,-31,3,24,13
1622149280654953,-3,11,9,17,-7,9,-14,-23
1622149280654953,16,-6,2,3,25,-26,-26,-17
1622149280660480,-8,-2,-14,-8,-5,15,2,-3
1622149280660480,1,0,1,1,0,-23,18,1
1622149280669305,-1,-3,16,14,-43,5,-9,4
1622149280669305,6,-5,-19,-43,-4,14,10,-33
1622149280683649,-1,0,6,-24,-13,-9,-18,15
1622149280683649,4,3,-9,14,-6,-15,-28,-7
1622149280690828,-1,-5,-11,-12,29,61,11,3
1622149280690828,-9,3,11,14,-26,-35,25,-6
1622149280714955,1,-1,4,16,6,22,-11,-2
1622149280714955,-5,0,4,-9,-5,-37,-8,2
1622149280715800,8,0,-6,7,11,-7,-15,5
1622149280715800,-6,-2,-9,-13,26,23,-29,-5
1622149280721075,15,0,16,12,-15,-18,2,-6
1622149280721075,-22,-6,2,-6,19,26,14,-1
1622149280729291,2,7,10,-1,-50,-24,-13,-28
1622149280729291,-3,1,-5,15,23,-11,-23,25
1622149280742830,-3,-7,3,7,10,0,3,-38
1622149280742830,5,6,4,19,-1,22,-19,2
1622149280751790,-1,-7,-9,-17,23,-25,-4,4
1622149280751790,-1,-3,-3,-17,-37,17,2,7
1622149280766773,-4,4,-1,7,-11,2,-9,13
1622149280766773,-4,5,8,11,34,14,35,-5
1622149280766773,-1,0,-10,-29,-4,2,3,7
1622149280766773,10,1,2,5,1,-57,9,6
1622149280781113,-9,-9,-11,17,13,50,9,4
1622149280781113,2,-2,0,-8,-35,15,-3,-13
1622149280789095,5,0,10,-3,19,-5,3,18
1622149280789095,5,2,2,41,-17,18,12,2
1622149280803204,8,-2,-9,-43,4,-4,9,-8
1622149280803204,-11,1,-1,32,-1,-16,-9,6
1622149280811158,-8,-7,-13,-54,-9,-9,-21,-8
1622149280811158,-11,-4,-12,24,-7,8,-14,-22
1622149280826388,23,2,27,19,19,-7,-11,6
1622149280826388,-1,0,-3,-8,-44,16,-1,15
1622149280827386,5,1,0,3,51,-29,7,3
1622149280827386,-5,-6,-3,-31,-24,21,23,5
1622149280840804,-15,10,-13,-6,-43,-7,-11,-10
1622149280840804,8,-4,16,-12,-11,-17,6,18
1622149280848739,-4,1,-1,6,13,22,-13,-16
1622149280848739,-2,7,9,7,60,3,4,-4
1622149280863245,-4,-13,-20,-24,-72,-12,-33,0
1622149280863245,6,-5,-6,9,-4,8,49,8
1622149280871808,-2,2,5,-9,2,1,-18,9
1622149280871808,-1,-2,1,12,3,-19,45,1
1622149280886676,-15,-4,12,-3,-8,-46,-32,-20
1622149280886676,1,0,-1,13,12,-16,-20,-17
1622149280886676,0,-5,-15,-15,-5,1,14,17
1622149280886676,8,3,15,14,-12,-8,-45,-23
1622149280900671,10,-3,10,11,60,-1,50,11
1622149280900671,-18,-3,-10,3,-24,-9,-48,-15
1622149280908653,15,0,-8,5,8,4,33,-1
1622149280908653,-6,4,5,3,6,25,3,16
1622149280923583,-5,-2,-5,12,30,-24,-6,4
1622149280923583,6,4,-3,-20,-1,45,-10,-9
1622149280931788,-2,-7,-5,0,-14,-53,11,2
1622149280931788,4,1,13,32,-22,-4,-37,-1
1622149280946323,-16,6,-4,-4,8,30,9,1
1622149280946323,5,-5,-10,-25,34,-5,26,-1
1622149280947295,-1,6,23,10,-21,-61,-56,-22
1622149280947295,0,-6,-15,-14,-17,51,16,32
1622149280960260,-8,-9,-6,0,3,1,-13,-34
1622149280960260,18,0,-10,-25,3,-13,-18,2
1622149280969317,-25,1,1,22,16,26,47,3
1622149280969317,2,0,13,14,18,-31,-3,-5
1622149280983024,5,1,-5,-34,-14,6,-22,15
1622149280983024,-2,1,-3,3,-13,-12,27,-6
1622149280998924,2,-6,-8,23,17,18,-37,-5
1622149280998924,-4,1,-8,-8,-9,-16,28,1
1622149281005963,3,7,7,13,2,5,13,16
1622149281005963,-4,-5,4,8,44,10,12,-8
1622149281006903,13,-3,-5,-21,-75,-30,-9,10
1622149281006903,-21,-3,-5,6,15,3,25,3
1622149281021141,1,-2,6,-27,-12,-29,-41,-6
1622149281021141,13,-2,-4,11,19,24,23,13
1622149281029266,21,3,4,-13,-41,1,-2,3
1622149281029266,-14,-5,-9,16,26,22,-4,10
1622149281042956,2,1,-11,-7,-19,-13,19,11
1622149281042956,-10,-7,-7,-10,23,-9,-15,-1
1622149281050935,-4,6,10,20,-6,22,0,-10
1622149281050935,17,-4,-2,-18,-18,-8,-17,4
1622149281065895,-20,-14,-3,10,-14,0,10,-2
1622149281065895,-8,6,8,2,5,1,-33,-3
1622149281074353,-2,-4,-7,3,32,23,42,3
1622149281074353,10,0,3,-10,6,-60,-3,-22
1622149281081155,1,-12,-15,5,-19,23,25,5
1622149281081155,9,-4,2,-5,-1,-15,-38,10
1622149281088840,-13,-5,-2,-15,-27,-29,-32,-63
1622149281088840,7,-3,-5,5,6,0,-7,34
1622149281102827,5,11,14,12,24,24,24,7
1622149281102827,-13,5,-3,-15,-36,-20,3,-8
1622149281111775,15,-11,-18,-9,34,53,-21,2
1622149281111775,-1,8,26,21,-8,-16,3,-6
1622149281125837,-3,-2,-19,-22,44,20,10,-2
1622149281125837,-6,-2,-2,16,-29,-28,-18,-10
1622149281133439,-5,0,0,2,32,13,-17,14
1622149281133439,-1,-2,-4,0,-35,-39,37,-4
1622149281140389,5,4,-13,-13,-2,14,-24,-11
1622149281140389,2,-3,11,-16,-52,-15,67,16
1622149281148368,-1,2,11,10,9,-1,8,7
1622149281148368,-3,-5,-17,15,21,21,-30,-33
1622149281163305,-3,-3,3,-8,-60,-18,14,23
1622149281163305,-2,-1,0,-9,45,-7,-15,-13
1622149281171813,-3,-3,-7,-18,-39,19,42,18
1622149281171813,-4,-1,-2,0,11,16,-27,-11
1622149281186201,-10,-1,8,17,-2,11,-21,-15
1622149281186201,13,0,3,-5,-15,23,30,-6
1622149281194205,-6,-2,-14,-23,-17,3,11,14
1622149281194205,9,1,8,4,5,-35,-38,1
1622149281200972,23,2,-1,12,30,27,5,-12
1622149281200972,-21,-4,-3,15,-2,23,-16,-6
1622149281208731,-1,1,-6,7,28,-37,-14,-44
1622149281208731,-7,-1,-14,-37,-22,20,-6,21
1622149281223595,7,2,22,7,-30,-29,15,14
1622149281223595,5,-3,-9,-3,32,2,-11,-10
1622149281232330,-5,0,10,34,-24,16,0,4
1622149281232330,-7,6,8,-21,35,-12,8,-14
1622149281245304,2,-2,-6,-3,-22,16,2,2
1622149281245304,2,1,5,9,54,-30,-3,2
1622149281262257,-6,-9,-6,-18,-39,8,-19,7
1622149281262257,-8,9,9,-28,4,1,55,-5
1622149281269671,2,-1,-4,13,11,2,-57,-2
1622149281269671,10,1,1,12,11,2,-19,3
1622149281275881,-16,0,11,2,-1,9,34,8
1622149281275881,2,-4,-4,21,-23,0,-7,24
1622149281283593,-7,-7,-8,-25,-29,-20,17,-38
1622149281283593,1,6,0,12,8,16,-5,8
1622149281291831,10,-2,-11,-5,63,-16,0,15
1622149281291831,0,-5,-3,-1,-44,5,-84,-13
1622149281305806,-2,1,1,1,1,38,88,12
1622149281305806,1,-2,8,5,-46,-34,-7,1
1622149281314800,-16,-10,-3,10,31,15,12,4
1622149281314800,14,7,-9,-6,2,26,-2,-10
1622149281329812,-5,1,6,18,-2,-16,-24,2
1622149281329812,-6,-2,-2,-6,-11,-3,-7,-8
1622149281330811,4,0,10,-19,-7,3,37,18
1622149281330811,-1,-6,-8,16,30,11,-26,-46
1622149281342800,7,0,-3,3,30,-14,-11,5
1622149281342800,-7,1,-7,-35,-50,29,14,18
1622149281351754,-12,0,-13,6,9,-21,8,2
1622149281351754,-6,-4,-7,-1,-27,34,10,1
1622149281365743,-15,-5,-11,-27,43,-23,-17,0
1622149281365743,-3,-7,2,32,-29,-15,20,-12
1622149281374688,3,1,3,-5,-4,-11,-46,-19
1622149281374688,17,11,7,31,19,11,72,5
1622149281405654,-4,3,3,-3,-21,-26,-72,0
1622149281405654,-6,-13,-6,-9,31,-2,25,6
1622149281406490,3,21,-2,23,-19,21,-14,3
1622149281406490,9,-15,5,-32,-3,5,37,8
1622149281408120,-5,2,1,17,26,-11,-20,15
1622149281408120,-2,5,2,-17,-15,-16,5,-17
1622149281412278,14,3,6,13,5,-6,-12,2
1622149281412278,-11,-11,-16,-18,30,-11,-9,16
1622149281426107,-8,1,8,14,-7,6,62,-1
1622149281426107,7,4,1,-27,-69,-35,-87,-31
1622149281434393,8,-5,-5,8,60,35,41,11
1622149281434393,-8,-9,-14,1,-15,-1,-16,-5
1622149281448381,14,3,12,-7,21,10,41,-9
1622149281448381,-21,-1,2,2,-4,6,0,16
1622149281463512,-4,3,15,46,-9,-13,-14,-12
1622149281463512,1,-8,-19,-63,-8,-11,9,-1
1622149281464503,7,-9,-11,4,-6,38,-19,22
1622149281464503,0,-3,-6,-11,-22,-14,14,-19
1622149281472335,-4,0,3,-4,2,-11,-25,14
1622149281472335,-2,4,4,-2,-4,-12,0,11
1622149281485842,-10,-9,-6,2,-29,3,21,3
1622149281485842,4,6,-7,-11,20,11,-11,3
1622149281494823,-5,-8,-7,-24,-6,-19,-2,-2
1622149281494823,8,6,25,44,6,1,-14,-5
1622149281507996,-14,3,7,3,4,-6,-18,6
1622149281507996,18,4,-18,18,16,22,16,-31
1622149281516881,4,-8,-9,-31,-3,-2,15,22
1622149281516881,-14,3,17,17,6,18,-4,-1
1622149281523552,-4,0,-1,1,-44,-24,6,-4
1622149281523552,-4,-3,-7,39,60,57,-18,7
1622149281557077,-1,0,7,-15,-6,-49,57,8
1622149281557077,2,1,-3,0,-27,5,-11,-29
1622149281557077,0,1,10,14,3,-21,-15,-14
1622149281557077,-8,-6,-13,-28,9,3,13,8
1622149281561067,10,0,-1,22,-19,-17,-17,-5
1622149281561067,0,-3,0,2,28,10,-17,7
1622149281568712,-7,0,-10,-14,8,-23,0,-17
1622149281568712,-8,-2,10,9,-12,12,16,-1
1622149281584227,-10,-3,-5,-31,-32,8,-7,-10
1622149281584227,19,1,-14,4,17,0,-8,3
1622149281584227,4,-1,-2,-5,3,1,-11,0
1622149281584227,-7,-7,-4,-8,-19,0,13,-23
1622149281592236,-5,4,1,0,23,15,21,-3
1622149281592236,-22,-7,-7,-15,-5,-43,-5,-2
1622149281605406,12,4,10,12,-7,-4,-38,29
1622149281605406,3,0,2,-7,5,14,15,-9
1622149281622704,-4,-9,-12,-7,-26,-28,2,-5
1622149281622704,21,-4,-12,-10,3,10,27,3
1622149281628720,-3,7,20,4,6,-7,-13,14
1622149281628720,-7,-5,8,26,21,7,-26,2
1622149281637459,3,2,0,-17,15,-2,-19,-4
1622149281637459,-8,0,10,-8,-70,9,44,17
1622149281643416,-6,-10,-22,-8,9,-10,-56,-67
1622149281643416,4,-1,-3,-1,-18,16,38,29
1622149281675659,9,2,8,23,21,14,7,4
1622149281675659,-7,-1,-8,8,-22,-19,-9,-4
1622149281675780,-3,-7,-13,-65,7,29,46,-1
1622149281675780,0,2,-1,25,9,-12,-18,-4
1622149281678151,-8,-1,1,-5,48,14,-46,7
1622149281678151,-13,-1,-1,-4,-61,-16,28,0
1622149281688686,9,1,-3,26,9,-6,26,5
1622149281688686,-4,-4,-9,-34,38,12,14,11
1622149281697664,2,3,6,11,-32,-44,-53,-2
1622149281697664,11,2,3,1,37,20,14,-28
1622149281703649,-10,-3,-2,6,-4,22,-10,-11
1622149281703649,7,5,-6,-40,-18,-32,-19,33
1622149281712727,9,-8,-8,4,-9,-8,19,1
1622149281712727,-15,1,16,22,9,1,-55,-11
1622149281725796,5,1,-12,-5,-19,7,30,6
1622149281725796,1,-3,5,16,40,8,25,-1
1622149281740755,7,-3,-4,-10,-82,6,-21,-26
1622149281740755,-15,5,3,35,44,-18,-25,16
1622149281747711,27,-8,-18,-59,-7,16,17,4
1622149281747711,-30,-2,3,27,-11,-1,-9,-9
1622149281757646,-9,-1,4,6,3,3,7,-5
1622149281757646,8,-8,-15,-8,-3,9,26,9
1622149281763712,-1,6,17,2,-44,-34,-40,-28
1622149281763712,4,1,11,10,-1,-17,11,0
1622149281779773,6,-4,-13,-2,52,5,36,-3
1622149281779773,-4,-3,-1,7,-76,15,2,31
1622149281786176,-11,-5,-13,12,29,-12,-29,-15
1622149281786176,5,3,6,-24,-22,-50,-31,13
1622149281794181,-5,-5,-2,11,11,76,42,-1
1622149281794181,6,2,7,11,51,-25,-50,-9
1622149281808208,-4,-1,0,0,-48,7,81,42
1622149281808208,8,-8,1,9,5,-34,-37,-30
1622149281833091,-8,11,-5,-19,-19,26,1,8
1622149281833091,14,-3,1,11,39,2,-15,-13
1622149281833792,-16,-2,-3,-16,13,22,20,12
1622149281833792,-11,2,-14,-14,-5,12,42,-3
1622149281834827,-8,-2,8,11,-3,-43,-107,-28
1622149281834827,-3,1,11,0,-20,17,99,21
1622149281845790,-7,-3,4,18,48,-27,-45,-14
1622149281845790,15,0,-3,-4,17,32,5,6
1622149281860777,-17,-5,-14,-8,-35,-13,11,-6
1622149281860777,5,-3,-3,-45,-33,-1,12,4
1622149281868074,0,-3,-3,-19,34,-23,-38,-5
1622149281868074,3,1,-1,5,-19,24,2,3
1622149281877674,9,6,9,-3,-11,-9,40,10
1622149281877674,1,0,4,15,52,25,-27,-3
1622149281883547,-8,-7,-4,-13,-66,-36,-5,1
1622149281883547,-8,6,2,-1,16,12,0,-3
1622149281892478,-13,-2,2,-1,11,-1,-6,4
1622149281892478,3,-1,-12,-34,-5,-4,-15,-10
1622149281906214,-7,3,6,22,8,19,27,10
1622149281906214,7,-4,-6,-16,-24,-15,-38,-8
1622149281914584,25,2,13,20,0,-28,-13,-5
1622149281914584,-29,-1,1,10,40,34,50,7
1622149281945563,32,-11,-16,-3,-40,-32,-27,21
1622149281945563,12,-7,19,-2,28,6,-18,-42
1622149281946566,-12,24,0,6,-5,10,11,21
1622149281946566,7,-3,-20,-25,-77,-24,-34,1
1622149281947536,-5,3,9,24,52,24,45,0
1622149281947536,-2,-7,-10,-3,3,9,12,12
1622149281952545,0,-8,3,-19,-40,-12,8,-9
1622149281952545,-6,-2,-21,-12,-4,-1,-4,-18
1622149281982083,-6,11,24,27,-38,-20,-48,-7
1622149281982083,-4,4,8,16,-10,-17,21,16
1622149281984104,4,-4,-11,-20,73,35,-1,-9
1622149281984104,-6,-4,-3,13,-60,-35,24,10
1622149281988750,18,-7,-3,-22,27,14,-61,-30
1622149281988750,-30,-3,1,22,9,-10,-16,-4
1622149281996928,-16,-6,-5,-5,16,-13,3,-31
1622149281996928,15,1,6,-14,-44,11,39,17
1622149282002913,7,-4,-8,-8,16,11,2,-2
1622149282002913,7,2,3,34,-20,-3,-13,5
1622149282019778,-27,-1,1,-5,21,-13,-17,-3
1622149282019778,21,-1,11,16,52,3,-20,-2
1622149282025943,-11,-2,-15,-14,-40,4,18,1
1622149282025943,6,6,16,4,-17,2,-11,-12
1622149282034414,-1,-14,-15,-26,3,22,21,9
1622149282034414,-8,7,-1,-5,14,-18,-46,-34
1622149282057596,-6,6,-3,17,31,13,-19,4
1622149282057596,5,-6,3,5,-26,-31,27,12
1622149282058595,0,-5,-7,2,-15,-9,8,5
1622149282058595,-7,-3,-1,0,14,9,7,-17
1622149282063460,20,1,-4,-15,22,7,17,16
1622149282063460,-22,-4,-16,-12,7,13,-6,2
1622149282071902,-1,-5,1,-1,-10,-10,-19,-4
1622149282071902,4,0,8,8,35,9,8,3
1622149282102405,-8,-2,4,23,-5,-6,23,3
1622149282102405,6,4,-3,-27,24,-3,1,15
1622149282103406,10,-3,-7,-12,-44,2,4,10
1622149282103406,-5,2,8,9,29,-11,-17,6
1622149282108679,-19,-3,-3,11,-10,6,-1,-18
1622149282108679,8,-2,-4,-27,-14,15,17,34
1622149282116875,0,3,-2,12,29,-18,-29,-23
1622149282116875,-5,4,-2,-5,-26,-11,-14,-17
1622149282123644,-11,1,2,0,23,-8,39,-1
1622149282123644,6,-6,-6,-9,-18,23,31,12
1622149282132327,1,8,16,40,25,-3,-18,-4
1622149282132327,22,-1,-2,-5,24,8,23,19
1622149282145321,-8,-5,1,-36,-38,-18,-36,-1
1622149282145321,4,3,-1,20,14,33,-5,-4
1622149282154354,-14,-7,-12,-27,-32,14,35,-7
1622149282154354,-8,0,12,27,14,-46,-49,-6
1622149282177425,16,2,2,5,25,53,68,18
1622149282177425,3,2,9,21,17,-30,-41,-14
1622149282178418,4,-1,-15,-29,-68,17,-10,-1
1622149282178418,-23,-2,3,-10,-1,2,33,-29
1622149282183627,-6,-4,-5,4,9,-4,-9,2
1622149282183627,-6,0,-9,-11,-29,-6,-14,-12
1622149282191810,15,0,21,10,48,-8,46,19
1622149282191810,-1,-5,-17,-34,-42,-6,-26,-1
1622149282214750,1,4,24,45,45,13,-8,0
1622149282214750,-6,-4,-14,-5,8,-24,36,-16
1622149282215721,3,-8,0,11,-18,-15,-75,16
1622149282215721,-2,2,-4,-1,39,15,19,19
1622149282228823,-6,5,8,0,-64,10,-2,-12
1622149282228823,0,-11,-13,-29,-1,12,7,10
1622149282236852,5,1,1,8,5,-4,24,-10
1622149282236852,-9,3,4,14,22,0,-25,6
1622149282251841,-3,-5,-18,-15,-56,-18,-61,-58
1622149282251841,2,4,22,9,7,-17,6,6
1622149282259793,-1,7,-4,-6,24,19,21,2
1622149282259793,4,-5,1,28,48,37,34,7
1622149282266217,5,2,-12,-28,-17,-22,24,12
1622149282266217,4,4,8,-12,-27,-16,-22,6
1622149282274904,9,-15,-10,-18,-19,0,5,7
1622149282274904,2,7,3,27,-12,20,0,14
1622149282296873,-2,-9,-13,-35,8,-36,5,1
1622149282296873,-5,8,-2,17,15,24,-6,-13
1622149282298841,2,-4,3,11,-5,-9,-27,1
1622149282298841,-4,-4,-11,-68,-14,-6,-23,-14
1622149282311858,0,-7,7,28,-13,16,22,21
1622149282311858,-7,-6,-12,-1,14,4,-7,-15
1622149282313851,2,14,8,-2,-11,-26,13,2
1622149282313851,0,-10,-5,20,-7,-24,-32,-6
1622149282335006,-3,-1,-13,-8,37,26,13,-2
1622149282335006,9,9,36,-2,0,-2,4,6
1622149282335809,-18,0,-3,36,-52,8,-11,2
1622149282335809,-3,-10,-14,-30,-6,-10,3,-2
1622149282347805,-2,-6,10,11,18,-22,2,8
1622149282347805,1,-1,-24,-36,-9,24,-39,-44
1622149282356878,17,11,2,10,37,-12,19,23
1622149282356878,2,0,8,9,13,9,17,12
1622149282371445,-14,1,-2,-8,0,-23,-11,-13
1622149282371445,6,-7,-7,28,-12,28,14,-9
1622149282396840,-7,-1,-1,-11,39,-22,-69,-36
1622149282396840,8,-4,-9,-1,-46,-12,-17,1
1622149282397866,-5,6,23,6,3,34,82,9
1622149282397866,-4,1,2,-32,-8,-59,-34,-1
1622149282400888,1,-7,-7,8,26,49,13,11
1622149282400888,-15,-2,-4,-2,14,-1,-4,-9
1622149282417485,8,5,0,8,-10,12,-31,-18
1622149282417485,-4,-4,-6,11,0,-1,38,22
1622149282418489,-9,1,16,-5,-11,-4,-25,0
1622149282418489,-2,-2,6,20,50,22,29,-2
1622149282432582,12,2,-11,-6,-34,-19,-13,11
1622149282432582,7,-1,-5,-6,-23,-15,-41,-17
1622149282433580,4,-14,-8,7,-2,-19,19,-13
1622149282433580,-3,15,-6,-18,-33,22,21,-6
1622149282445573,-4,0,-3,6,21,-20,-17,19
1622149282445573,-1,-6,5,12,12,-26,8,3
1622149282454519,-4,-6,-6,12,-26,18,13,5
1622149282454519,11,-8,4,-47,-18,-29,38,-1
1622149282468510,-10,-2,-4,-16,23,46,-35,-9
1622149282468510,5,5,20,51,12,23,10,22
1622149282477458,-10,-5,-4,-8,2,-24,-17,-16
1622149282477458,-1,-10,-9,-17,-24,-34,-3,11
1622149282492384,1,8,-2,2,1,-32,-87,-27
1622149282492384,-20,-8,-10,21,23,24,1,-46
1622149282494383,5,-3,5,-14,37,7,61,28
1622149282494383,0,18,35,72,15,7,-31,11
1622149282505380,6,-5,-17,-61,24,9,4,-6
1622149282505380,-10,-5,-12,-15,-30,-9,-9,5
1622149282514365,5,2,-15,-10,-25,7,-50,-12
1622149282514365,1,-3,3,-3,40,7,-16,-11
1622149282528677,-2,-5,-3,8,-28,9,37,9
1622149282528677,7,3,2,36,-11,11,8,19
1622149282536914,-7,-7,-12,-56,-6,-32,-4,-14
1622149282536914,-12,-10,-20,-17,26,48,30,20
1622149282552427,26,6,7,29,-24,-9,-5,2
1622149282552427,-4,-5,-6,-47,-15,3,42,39
1622149282553427,-8,0,-6,29,52,5,-74,-12
1622149282553427,3,6,21,6,-96,-48,26,-9
1622149282566219,-1,-2,-7,-4,23,19,-4,-9
1622149282566219,-18,-3,-17,-3,14,12,48,19
1622149282574484,14,-4,17,41,-4,-42,17,7
1622149282574484,-3,5,-8,-58,-2,34,-1,2
1622149282587927,1,-1,-13,23,-17,13,14,9
1622149282587927,-3,-3,4,-12,-7,-45,-37,-24
1622149282596828,-4,3,-10,-12,29,22,-17,13
1622149282596828,-4,-1,9,49,-14,-18,-38,-48
1622149282612230,-5,-10,-2,18,-33,23,6,-6
1622149282612230,10,6,12,-36,67,-9,-20,2
1622149282613232,-15,-4,-6,-9,-31,22,43,10
1622149282613232,-3,-7,-10,-16,12,-23,-25,-17
1622149282625896,-2,8,16,21,-8,-7,17,15
1622149282625896,6,-5,-4,13,20,8,-13,6
1622149282634881,-6,-2,-7,-14,-51,-45,11,8
1622149282634881,15,3,4,21,25,3,-36,16
1622149282665055,-5,-13,-23,-40,-13,-4,35,8
1622149282665055,3,-7,-12,-49,-31,8,-1,-6
1622149282666717,-5,16,7,37,28,13,29,5
1622149282666717,-2,2,23,50,11,-10,-8,-30
1622149282672468,-7,-9,-5,-19,19,-16,-42,-9
1622149282672468,17,9,5,3,-32,-8,85,10
1622149282673467,-5,-5,-1,8,18,-1,-42,-26
1622149282673467,-8,-13,-27,-48,42,19,2,19
1622149282694338,-3,11,7,9,-10,-5,0,-3
1622149282694338,-16,-1,11,-4,-6,-36,30,-4
1622149282696333,-2,2,23,26,40,-3,-21,1
1622149282696333,4,-3,-18,-4,-45,38,7,3
1622149282708640,-2,-3,11,-9,-7,-4,-5,-3
1622149282708640,4,4,-8,9,29,5,-5,-3
1622149282716943,4,-6,-10,-14,-20,17,56,2
1622149282716943,3,7,14,37,-5,-18,-5,-2
1622149282732477,-5,-5,-6,-15,2,-5,16,26
1622149282732477,13,-7,-9,6,1,-29,-77,-21
1622149282733478,-15,-2,-9,-44,-35,44,71,-11
1622149282733478,20,1,11,-4,4,-30,10,9
1622149282745470,-5,-4,0,66,3,-3,38,11
1622149282745470,-4,3,0,-33,-13,-25,-68,-33
1622149282754433,13,8,13,56,20,-15,46,27
1622149282754433,4,-11,-24,-76,-25,8,-61,11
1622149282768722,-8,1,0,6,18,17,42,-11
1622149282768722,-8,-1,-11,-6,36,-5,-37,-19
1622149282777601,8,2,4,-1,-54,10,-58,-17
1622149282777601,-11,-7,-14,3,-24,17,57,27
1622149282791816,0,5,17,-12,28,13,-2,-14
1622149282791816,-13,-2,-21,20,-7,9,-2,17
1622149282814741,19,7,14,-15,-9,1,-20,0
1622149282814741,-19,-2,5,35,-18,-2,30,2
1622149282814741,-4,1,-8,-30,34,-34,-65,-23
1622149282814741,30,-7,-18,-4,-4,26,76,31
1622149282822666,6,5,13,18,20,9,-46,-14
1622149282822666,-13,-10,-9,-30,-40,-13,-72,10
1622149282828665,-5,12,4,-2,-36,-32,-11,-14
1622149282828665,-11,-1,-2,20,18,9,7,-38
1622149282836939,5,-3,-6,-4,-25,7,-16,3
1622149282836939,12,0,-6,-19,22,-10,99,4
1622149282851879,-3,-4,3,-7,18,-23,-81,5
1622149282851879,-5,4,22,51,-22,13,17,10
1622149282858729,-7,-7,-10,-38,-52,-48,-72,1
1622149282858729,-5,-5,-4,7,67,38,2,-45
1622149282866240,-11,6,-6,17,-6,8,37,-6
1622149282866240,11,3,5,-8,27,10,33,10
1622149282874429,-15,-3,-5,-14,-6,3,49,10
1622149282874429,7,6,19,37,-19,-50,-21,9
1622149282888852,-1,-1,-3,9,23,22,1,2
1622149282888852,8,-10,-16,-22,-17,-10,-45,1
1622149282896842,-16,8,16,-15,-4,36,47,-10
1622149282896842,1,-1,-13,6,-37,-1,-64,-9
1622149282911091,11,0,19,-5,30,-1,41,7
1622149282911091,-12,4,5,34,-28,5,-16,0
1622149282944358,1,-10,-15,-16,27,-4,8,13
1622149282944358,1,2,-8,-54,-8,7,9,-15
1622149282945384,6,-5,1,-1,3,3,59,6
1622149282945384,-10,0,-2,8,14,-5,-49,8
1622149282948368,12,0,4,3,-17,-39,-5,-13
1622149282948368,-10,0,4,38,-17,-10,-9,-7
1622149282949374,5,2,-12,-21,37,29,20,7
1622149282949374,-1,-4,7,-4,-37,-9,-4,10
1622149282956969,19,-9,-13,-18,56,43,71,20
1622149282956969,-37,-7,-9,-16,4,-1,-2,2
1622149282971242,5,5,2,28,-39,-25,-128,20
1622149282971242,0,-3,3,-27,-1,4,35,-7
1622149282979435,-1,-1,-2,19,25,13,8,3
1622149282979435,0,1,2,-28,-32,-25,-34,-14
1622149282986207,-3,-5,-13,-4,-1,10,26,9
1622149282986207,2,0,19,-8,59,17,-14,-13
1622149282995209,-2,-4,-21,-17,-55,-16,-26,-5
1622149282995209,9,10,40,-13,-3,-13,-18,-26
1622149283008705,-5,-4,-5,26,-12,27,39,12
1622149283008705,-3,1,-5,-24,-8,10,27,15
1622149283024407,-11,1,-2,9,32,-15,-44,-27
1622149283024407,33,0,-8,20,35,-4,65,7
1622149283030259,-45,-10,6,-16,-69,-28,-101,-43
1622149283030259,-6,6,8,36,-12,22,7,19
1622149283047387,9,4,-1,1,12,11,30,-4
1622149283047387,13,-11,-4,-15,31,-18,-10,19
1622149283048384,21,3,-5,-30,22,16,16,-4
1622149283048384,-2,4,-6,22,-45,-11,8,7
1622149283062323,-12,-5,10,-1,-8,-27,-66,-30
1622149283062323,6,9,9,34,-22,-10,-20,12
1622149283068761,-1,-3,-5,-13,30,36,66,2
1622149283068761,-12,-3,4,5,1,-9,-8,-8
1622149283076900,14,0,-6,21,17,-4,29,64
1622149283076900,-6,-2,-17,-48,-10,25,-41,-37
1622149283090988,-2,5,8,12,-46,5,-8,0
1622149283090988,4,-7,-12,-4,19,-40,4,1
1622149283099858,-12,0,7,16,30,12,-13,-6
1622149283099858,5,-1,9,-2,-38,-10,5,3
1622149283105857,-17,-9,-20,1,-21,-25,23,24
1622149283105857,3,-4,4,-15,-2,-17,-42,-11
1622149283114736,6,11,-10,7,-22,14,13,-15
1622149283114736,-24,0,2,17,-9,26,-9,18
1622149283128701,14,-9,-13,-4,31,-5,-1,-39
1622149283128701,9,12,20,9,2,3,38,23
1622149283137676,-5,-6,-16,-45,-5,-15,-34,7
1622149283137676,-1,-1,-6,18,-8,-2,-24,-44
1622149283150681,5,-4,8,-13,15,-9,18,1
1622149283150681,-10,-10,-15,21,13,22,-16,-2
1622149283182581,-4,4,10,-21,-18,-20,31,-8
1622149283182581,10,-4,-3,4,-4,-1,14,17
1622149283183552,-1,0,9,20,8,-11,20,20
1622149283183552,-12,-7,-17,-38,-14,0,7,-32
1622149283186568,4,-2,12,8,0,-20,-50,-3
1622149283186568,-1,1,-7,14,22,-8,3,7
1622149283188562,3,20,3,9,7,64,49,30
1622149283188562,-10,-4,0,-29,-3,-4,-8,-23
1622149283221792,-2,-8,0,19,-9,1,16,-9
1622149283221792,-1,5,-5,-11,-9,7,17,24
1622149283222789,16,0,4,32,25,-22,-40,-6
1622149283222789,6,-3,-9,-20,-66,14,-2,-2
1622149283225781,-2,1,2,-10,-7,15,-3,1
1622149283225781,-4,-1,3,1,18,-7,31,1
1622149283234781,2,-3,-6,-26,-22,-62,-8,-8
1622149283234781,-16,2,9,16,-6,10,-6,5
1622149283235778,8,-8,-15,-7,29,16,9,8
1622149283235778,-5,3,5,36,-25,-25,9,23
1622149283248719,-5,-9,-11,-34,35,-11,-62,-11
1622149283248719,2,4,0,23,16,12,80,7
1622149283256722,18,1,-8,-6,-34,-13,-42,-26
1622149283256722,-38,-1,0,-37,35,28,-30,4
1622149283270660,-12,-9,10,1,-3,0,12,10
1622149283270660,24,-14,-8,-9,43,-12,-28,-16
1622149283285621,-11,18,3,23,-14,5,22,-2
1622149283285621,9,4,4,5,64,15,16,-9
1622149283294597,0,1,-1,-23,-50,-45,-28,-1
1622149283294597,5,-8,-14,-15,-7,17,-13,2
1622149283296616,-15,-8,-4,9,-5,-11,19,-3
1622149283296616,3,-3,-6,-24,-10,13,2,-14
1622149283308584,6,0,3,26,-4,27,-2,-4
1622149283308584,-3,11,2,-12,14,-24,-41,11
1622149283324516,0,-3,11,6,19,52,74,13
1622149283324516,9,1,-1,23,-20,-98,-17,7
1622149283331165,-14,-3,-6,-6,-10,18,47,18
1622149283331165,-8,-2,-12,-4,3,-10,1,-4
1622149283339813,-5,2,5,-17,-5,29,45,5
1622149283339813,12,-6,-2,41,18,-11,-31,-5
1622149283353817,14,-3,1,12,44,-15,-7,-11
1622149283353817,-11,-7,-10,-76,-46,-4,11,16
1622149283370736,-11,7,5,5,-19,15,-43,-14
1622149283370736,5,-3,-7,14,32,32,36,-5
1622149283370736,0,-2,-6,12,-66,-21,-16,-9
1622149283370736,0,8,29,29,-4,8,-6,-4
1622149283384474,12,-13,-5,-31,17,17,-61,-3
1622149283384474,-4,-3,-22,-12,-21,7,-30,-12
1622149283390460,3,9,12,16,9,-11,22,26
1622149283390460,-1,-3,10,10,15,40,-1,-33
1622149283406996,-9,1,-2,-9,-40,-40,4,4
1622149283406996,-10,3,1,-5,24,20,25,0
1622149283414748,14,-7,-4,-15,15,4,3,1
1622149283414748,0,8,0,15,-62,-17,-16,7
1622149283415747,-7,4,4,33,25,-9,3,-5
1622149283415747,10,-7,-14,-48,9,7,5,3
1622149283428764,-6,-5,2,5,-27,3,-6,-21
1622149283428764,6,-1,3,-1,9,1,-31,9
1622149283444861,-5,-7,3,-19,4,-1,35,4
1622149283444861,-7,8,14,53,-3,-20,-8,15
1622149283450934,-3,2,-6,-19,4,0,11,-4
1622149283450934,-1,-3,-5,25,40,20,9,-3
1622149283459996,1,-8,-13,-37,-69,-35,-15,-12
1622149283459996,-2,-6,0,-31,-3,12,10,31
1622149283473860,-11,1,7,22,26,0,-34,-57
1622149283473860,9,-7,-8,-2,28,-2,-6,26
1622149283488862,-4,8,-8,14,15,0,18,16
1622149283488862,6,4,8,-13,-16,30,-7,-13
1622149283489823,3,0,-13,12,-28,-31,-17,-15
1622149283489823,-8,2,10,-7,-5,13,44,12
1622149283496834,4,-6,-7,18,31,-3,-33,-6
1622149283496834,4,-2,5,24,4,-18,15,10
1622149283519161,-9,10,-10,-5,7,22,-3,10
1622149283519161,2,-3,11,-16,13,12,-30,-12
1622149283527763,1,-1,3,5,2,-6,10,4
1622149283527763,1,-13,-14,-22,-15,6,2,-8
1622149283535086,-1,-3,8,2,12,-4,-20,29
1622149283535086,-3,5,-5,11,37,-8,24,23
1622149283535806,-1,-5,1,-1,-39,-1,-2,5
1622149283535806,-10,4,-3,4,45,-22,-14,-15
1622149283547805,5,-10,-15,-68,-51,-5,15,12
1622149283547805,0,5,12,38,-31,7,6,-9
1622149283563786,-19,1,1,-2,33,-5,-47,-24
1622149283563786,7,1,0,27,-14,-50,5,6
1622149283571260,11,-1,4,-17,20,43,50,14
1622149283571260,-13,4,-4,-26,-30,-11,-20,-11
1622149283579775,10,-4,-4,49,21,3,58,8
1622149283579775,10,-6,-15,-43,-49,-11,-50,-13
1622149283602558,-5,-3,18,3,27,11,17,-6
1622149283602558,-5,-3,-21,-13,7,-34,-18,-17
1622149283603559,7,6,6,3,-7,-6,-10,-2
1622149283603559,-10,-4,-1,11,5,41,11,-22
1622149283617618,-1,-1,-5,8,6,-11,-12,4
1622149283617618,-1,-3,-7,5,34,-7,8,0
1622149283618703,-3,-4,3,-16,-40,-6,-4,4
1622149283618703,-4,2,-3,20,5,-8,8,-3
1622149283631286,-18,0,2,-22,6,13,23,-9
1622149283631286,7,-5,-16,14,19,-42,-34,-16
1622149283639946,10,2,20,11,7,48,-23,17
1622149283639946,-5,4,11,-17,6,31,45,14
1622149283654549,-5,0,7,21,-15,-14,-28,-15
1622149283654549,-7,-4,-2,-26,-52,-24,4,3
1622149283656658,19,2,-2,-5,55,-5,37,-2
1622149283656658,-23,-6,-7,-15,-21,-9,-8,-1
1622149283668737,-7,-3,-4,9,-16,-1,-23,0
1622149283668737,10,-2,2,7,9,7,33,11
1622149283685895,-1,2,-3,-22,-55,-8,-26,-8
1622149283685895,6,4,8,30,13,8,4,-4
1622149283691286,7,0,-6,-38,-15,-25,-10,-10
1622149283691286,-12,-7,-5,16,-37,-5,-27,-1
1622149283699470,-12,-2,-5,-11,36,-6,-4,-4
1622149283699470,2,5,20,1,-11,18,11,7
1622149283722084,1,-6,-8,-11,31,-15,3,0
1622149283722084,4,6,20,37,-11,-7,48,6
1622149283724191,-7,-4,-1,-29,3,-12,-84,-13
1622149283724191,-4,-5,-16,-36,-59,-15,-20,-9
1622149283728773,8,1,-5,33,8,25,48,6
1622149283728773,-4,-3,6,-19,28,13,-12,-31
1622149283736981,1,-4,-16,-3,0,-12,45,37
1622149283736981,-7,1,11,0,13,7,-10,-27
1622149283760006,4,5,2,40,-11,-25,-31,18
1622149283760006,-6,-9,-17,-31,-22,29,5,-14
1622149283761002,26,5,-4,20,-12,-9,33,8
1622149283761002,-19,-7,-7,-37,22,-22,-34,2
1622149283775521,-8,-4,-6,12,-46,14,26,-1
1622149283775521,0,-4,-8,12,39,-3,-13,5
1622149283776784,3,-2,4,1,-1,9,-8,-19
1622149283776784,18,15,6,41,26,15,24,8
1622149283788740,-2,-6,-5,-19,33,18,-36,1
1622149283788740,-9,0,-13,-39,-12,-12,-16,13
1622149283796747,-8,-7,1,7,9,5,-18,-15
1622149283796747,11,-1,2,13,-24,15,54,16
1622149283810996,-4,-3,-9,-22,13,-12,-4,5
1622149283810996,3,5,26,39,-9,9,-25,-21
1622149283819776,-3,3,-9,-9,28,-12,-1,20
1622149283819776,-3,-8,-5,-16,-24,11,21,-2
1622149283835030,-1,0,-1,-18,-26,-10,-25,-18
1622149283835030,5,2,2,8,-5,-18,-1,2
1622149283835781,-12,0,9,-5,13,5,7,-16
1622149283835781,16,-4,-17,-29,-6,-5,-9,2
1622149283847775,-21,-2,4,8,-6,16,2,-1
1622149283847775,-5,-2,7,-7,13,-2,7,-19
1622149283857020,2,-1,-4,11,14,-12,-11,57
1622149283857020,-3,-5,-10,-4,10,19,-17,-43
1622149283871196,15,0,-1,-11,-4,49,8,-4
1622149283871196,2,9,6,-6,4,-38,26,24
1622149283879776,-12,-2,1,16,-8,14,-15,-24
1622149283879776,0,-4,9,8,2,-23,19,8
1622149283894898,1,10,-5,13,28,-21,-63,-26
1622149283894898,8,0,0,-7,10,23,40,22
1622149283895871,-13,-8,-14,-1,-14,9,20,-14
1622149283895871,-6,0,8,14,34,-23,-44,1
1622149283925023,1,-3,-2,2,0,15,24,-11
1622149283925023,16,-1,3,19,22,3,3,13
1622149283925781,-21,-6,-14,-21,-72,-13,1,-6
1622149283925781,-6,-2,-11,-11,41,8,-5,12
1622149283931259,1,-4,12,3,-26,-36,-34,-36
1622149283931259,-8,2,-25,-13,39,21,-20,3
1622149283940238,4,5,35,31,-18,7,37,-26
1622149283940238,-3,-2,-13,-3,-23,-6,-31,4
1622149283962285,2,-1,10,17,5,-14,33,17
1622149283962285,-12,-5,-7,-63,-10,21,-56,-11
1622149283964278,2,-5,-13,14,1,-55,18,-16
1622149283964278,0,-2,10,2,7,-20,7,0
1622149283968763,-2,7,6,8,49,-2,-16,31
1622149283968763,-3,0,-8,-1,-71,15,-6,-21
1622149283976951,8,1,-6,-24,32,8,27,6
1622149283976951,-4,4,16,29,-23,-7,21,0
1622149283991250,-11,-8,-13,1,-4,-14,-2,7
1622149283991250,1,-6,-4,20,20,3,29,-10
1622149283999255,-3,-1,-13,-48,4,-32,-99,4
1622149283999255,10,-3,-3,-2,-17,44,54,6
1622149284014548,6,2,13,10,-16,-18,-7,-14
1622149284014548,1,2,14,10,-1,25,42,19
1622149284021181,2,3,3,29,18,-42,11,-1
1622149284021181,-1,4,-8,-28,-21,14,-25,-24
1622149284027828,-10,-9,-14,-26,2,-26,6,17
1622149284027828,-3,-5,-8,11,-27,6,19,-1
1622149284036854,0,3,8,-9,-28,8,-11,3
1622149284036854,-15,-2,-10,13,26,7,-15,-2
1622149284050820,13,-3,-11,0,-2,-13,28,4
1622149284050820,29,9,22,-15,-24,-2,-14,-2
1622149284059797,-22,-9,-9,15,38,29,-9,-15
1622149284059797,-9,0,-1,-18,-11,2,8,23
1622149284073783,4,3,4,10,-24,-6,-21,-19
1622149284073783,-4,-4,-13,20,38,8,24,-22
1622149284080765,7,-1,0,-31,-83,-30,8,21
1622149284080765,2,8,4,-5,18,-18,-42,0
1622149284088720,-3,-1,2,5,-8,28,62,7
1622149284088720,-6,-5,-14,-23,1,-9,-27,-6
1622149284097695,14,2,29,15,17,29,15,-9
1622149284097695,-16,-6,-8,-2,-34,-23,8,21
1622149284110675,11,5,8,8,27,-22,-32,0
1622149284110675,1,3,17,14,0,-7,31,18
1622149284119637,-8,6,-26,-26,-33,30,-28,-8
1622149284119637,16,-3,1,16,13,16,22,-7
1622149284133624,-9,0,6,-25,-8,9,-15,-39
1622149284133624,-5,-5,-12,-14,23,4,-7,10
1622149284141315,-3,-1,0,9,2,-35,-14,-2
1622149284141315,-1,0,3,25,-17,32,1,-8
1622149284157595,-7,-4,-13,-42,1,15,8,19
1622149284157595,-9,-5,-4,20,-3,-12,-11,-29
1622149284158600,14,1,1,-10,40,30,44,0
1622149284158600,-3,-3,-7,-26,-3,-1,-40,-4
1622149284170803,5,-1,8,50,7,-2,73,12
1622149284170803,-9,0,-12,-18,-17,1,-100,0
1622149284179595,3,3,21,23,30,1,0,5
1622149284179595,9,-6,-4,5,9,-25,44,-5
1622149284193810,0,-2,-9,2,-14,19,-47,3
1622149284193810,-8,3,0,-1,-40,-19,34,9
1622149284200797,-26,-5,-16,14,68,28,-30,-59
1622149284200797,2,-5,12,10,-51,4,26,29
1622149284217594,6,0,-2,-11,-15,-33,-56,-13
1622149284217594,1,5,16,9,16,34,50,19
1622149284218600,1,-5,-19,-6,-19,-9,-5,-6
1622149284218600,3,-5,-3,-28,23,13,-9,1
1622149284230747,0,7,11,30,12,2,-9,-6
1622149284230747,3,-3,7,-29,-19,6,-4,12
1622149284239725,1,-3,-7,25,5,7,70,10
1622149284239725,6,2,-1,15,45,32,-9,2
1622149284253708,-6,-7,0,-21,-43,-11,4,-16
1622149284253708,3,3,-3,18,14,-41,-32,-11
1622149284260692,3,-5,-4,-3,-2,-8,-43,-23
1622149284260692,-8,-3,-9,-6,-5,-17,30,-2
1622149284277712,-8,-1,0,-1,4,44,-30,-24
1622149284277712,10,-5,-9,-3,-43,-3,13,18
1622149284278689,-8,-3,-1,-11,28,-2,-2,5
1622149284278689,8,10,15,25,-24,-37,-9,-7
1622149284290979,-5,-5,-6,24,38,16,24,4
1622149284290979,3,-8,-12,-42,-20,7,5,-5
1622149284299858,-11,16,10,-8,21,-13,-33,8
1622149284299858,7,-5,0,28,10,-12,37,11
1622149284314501,5,-2,-6,-26,-46,3,-26,-3
1622149284314501,-2,-2,-2,15,16,-24,1,-3
1622149284321239,5,-3,-3,3,-6,20,17,14
1622149284321239,-8,-4,9,-13,-18,-11,-31,0
1622149284337571,-5,-3,-8,6,5,9,70,-6
1622149284337571,-4,1,2,-16,16,-29,-42,-3
1622149284338574,9,-1,0,9,-27,8,-9,4
1622149284338574,-6,-2,-3,-15,7,4,0,-17
1622149284350563,2,-4,-3,-28,21,7,-1,42
1622149284350563,-6,-2,-10,-4,10,4,12,-5
1622149284359702,6,0,25,28,33,5,9,5
1622149284359702,2,2,-6,-11,-63,-10,-2,-2
1622149284373899,-5,4,-6,-3,13,4,-13,0
1622149284373899,-6,2,-5,-8,35,-15,-13,-10
1622149284381202,35,-3,17,3,-60,-14,20,41
1622149284381202,-30,0,7,18,35,41,12,-6
1622149284397192,3,-7,-6,-10,-4,17,16,-5
1622149284397192,-6,3,4,16,-23,-33,-6,29
1622149284399159,2,0,-8,-6,-26,20,6,-28
1622149284399159,4,1,-7,-15,19,-28,-71,-5
1622149284411146,-1,-6,-4,-12,-36,-8,19,-7
1622149284411146,6,-3,8,21,23,46,24,8
1622149284419803,-21,-6,-18,-18,-23,-11,2,-13
1622149284419803,9,14,18,-3,19,-4,10,14
1622149284434442,-4,-2,-10,16,-17,-7,-22,-8
1622149284434442,-3,3,-2,-12,-3,-3,-22,-21
1622149284448365,0,-4,-4,-32,-12,-29,16,18
1622149284448365,14,-3,-12,13,30,-15,-14,-14
1622149284457707,-11,2,-1,-7,5,-34,-16,0
1622149284457707,-5,-1,-3,19,-23,17,-19,-19
1622149284458709,-5,0,10,-1,23,-19,10,2
1622149284458709,20,-2,-10,7,-48,0,30,9
1622149284471150,-9,0,5,-37,44,-6,-27,25
1622149284471150,-8,-4,-3,6,-34,-9,8,-43
1622149284479743,-18,6,7,-4,1,3,-35,-2
1622149284479743,3,-1,-10,10,36,10,29,-4
1622149284494802,11,4,5,17,-27,-2,-25,32
1622149284494802,3,4,8,3,-2,-16,48,-22
1622149284500802,-8,-10,-14,-11,-19,20,-11,12
1622149284500802,-2,1,2,-5,16,-4,-19,-1
1622149284516761,11,2,7,13,-24,-24,8,-4
1622149284516761,-9,-8,-3,-35,25,26,-48,-7
1622149284518775,5,-5,-6,30,11,-28,36,14
1622149284518775,-14,-3,-1,-18,-20,-11,-33,-12
1622149284531232,6,9,28,31,-3,14,21,-4
1622149284531232,17,-4,-1,-28,-3,-4,49,22
1622149284539775,-10,1,-6,24,-8,17,-58,-24
1622149284539775,1,-14,-16,-23,-4,25,11,18
1622149284553739,-6,6,10,18,40,-15,9,-13
1622149284553739,0,5,16,14,-51,-40,-42,-4
1622149284562778,-12,-3,-12,-32,9,48,64,12
1622149284562778,12,-4,-1,0,8,-28,-48,-3
1622149284577632,-9,-2,-6,-27,-11,-8,19,-7
1622149284577632,3,4,8,51,16,1,-3,25
1622149284579157,20,-7,-16,-27,4,0,-10,-3
1622149284579157,-28,-3,-5,-15,-2,14,-1,-6
1622149284591032,-3,-8,-9,-9,-24,-27,-14,-18
1622149284591032,-2,1,-5,-7,27,6,-15,2
1622149284607048,0,-6,7,28,11,-28,5,-6
1622149284607048,5,18,3,8,14,-5,2,8
1622149284613407,2,-9,-15,-26,-13,8,10,-13
1622149284613407,-3,-5,-10,-19,-15,42,31,20
1622149284621869,6,-2,5,20,6,-38,-22,-9
1622149284621869,-2,-6,-1,-16,-13,-27,1,-8
1622149284637876,0,0,-4,29,4,13,11,7
1622149284637876,0,0,4,-1,-8,-21,0,8
1622149284638875,0,1,-7,-26,-8,10,22,-18
1622149284638875,-5,3,21,43,-4,-5,11,-4
1622149284651254,6,-1,-8,-20,25,20,6,7
1622149284651254,-2,-7,0,30,10,28,22,15
1622149284659897,0,8,7,-11,16,-14,-38,-14
1622149284659897,-4,-4,-9,-24,-37,1,10,0
1622149284674264,0,0,2,37,10,-1,-25,38
1622149284674264,-2,-2,-12,-19,2,-5,-2,-24
1622149284682326,2,1,-12,-32,2,23,6,5
1622149284682326,2,0,2,20,11,36,46,13
1622149284697679,-13,1,3,-6,-8,-5,-15,-8
1622149284697679,18,-6,2,16,31,-5,-12,0
1622149284698476,-11,-3,3,-12,-71,-44,-10,1
1622149284698476,-7,5,-3,-22,15,-28,6,-17
1622149284711010,22,-3,-6,19,22,24,3,5
1622149284711010,-9,-2,3,19,21,5,2,-3
1622149284727795,-10,1,-12,-12,7,27,29,4
1622149284727795,8,-4,-6,-13,-26,-15,-34,0
1622149284733812,-8,2,-2,8,11,3,30,11
1622149284733812,6,-2,-3,-7,20,-20,-10,0
1622149284741793,4,-4,5,-1,-34,-5,-29,-12
1622149284741793,-11,-4,-12,3,44,-4,-19,-2
1622149284757718,0,-4,-4,-11,-2,15,51,-13
1622149284757718,-4,7,1,-6,-24,7,-7,2
1622149284758717,15,-1,2,29,31,11,-42,8
1622149284758717,-17,-2,-1,-37,-25,-5,5,-7
1622149284771316,-5,-6,4,-7,1,-35,-48,-25
1622149284771316,12,1,-4,3,-28,20,18,18
1622149284779734,-23,4,-6,-10,-29,-16,17,12
1622149284779734,35,2,12,41,26,17,-9,-28
1622149284794325,-5,1,-6,-7,7,19,5,10
1622149284794325,-17,-8,-13,-40,-12,1,-4,-17
1622149284802303,5,2,2,0,12,25,-8,0
1622149284802303,-9,1,23,59,-32,-62,-4,-2
1622149284817598,2,4,-12,-24,40,-4,-16,16
1622149284817598,0,-3,11,12,-36,11,23,-1
1622149284818604,2,-5,-5,4,32,4,5,-1
1622149284818604,-10,13,2,-8,4,7,37,8
1622149284830834,7,2,22,32,-60,17,-23,-12
1622149284830834,1,-1,-7,-25,38,-24,-26,-6
1622149284839776,-20,-14,-6,17,7,-3,14,-1
1622149284839776,-10,5,4,-20,-25,13,-15,6
1622149284853772,10,-2,-2,10,15,-8,-37,-28
1622149284853772,-13,2,-11,-22,-6,-3,20,-13
1622149284862721,14,1,13,28,3,11,35,11
1622149284862721,4,-7,1,-7,39,27,-14,2
1622149284884686,-10,0,-4,-1,-2,-65,15,13
1622149284884686,2,-5,-3,0,-11,14,-29,-10
1622149284886680,-2,2,-10,-34,-14,-26,3,5
1622149284886680,5,-6,-8,2,9,26,-3,0
1622149284890645,-1,-1,-2,-20,-38,-5,-28,-1
1622149284890645,-5,-3,1,10,-1,-11,32,15
1622149284900278,-1,7,8,18,39,-10,12,-3
1622149284900278,-7,-2,-13,-25,6,37,-13,-15
1622149284913244,5,-5,5,12,3,-9,29,36
1622149284913244,11,5,2,43,9,-2,-6,-30
1622149284922220,-14,-14,1,-55,-48,17,-32,-4
1622149284922220,-8,4,-4,21,30,-21,-8,10
1622149284936925,-3,0,-9,-37,16,43,-8,-25
1622149284936925,-12,3,9,35,-48,-13,-22,-2
1622149284942901,23,2,3,15,22,17,1,7
1622149284942901,3,-12,-13,-38,-55,-14,19,-1
1622149284950983,-12,-1,3,12,0,1,-14,-8
1622149284950983,-3,-2,-17,-6,36,-2,22,-9
1622149284959991,13,-1,10,-10,2,-12,-33,10
1622149284959991,-14,-6,-2,22,-24,9,1,-1
1622149284972815,1,5,-4,-18,-6,13,24,-6
1622149284972815,-1,-10,-8,-24,26,-55,-19,-27
1622149284981862,19,1,-2,8,-4,5,22,-4
1622149284981862,-16,-1,5,13,-5,25,24,19
1622149285004798,-8,0,-11,-19,33,-22,-34,-18
1622149285004798,2,2,7,12,-36,18,-6,-6
1622149285005776,-20,-5,-18,-14,6,19,43,-6
1622149285005776,20,8,13,9,-24,-72,-36,1
1622149285010763,1,-9,1,-10,5,7,12,-8
1622149285010763,-14,8,7,15,-2,13,-13,21
1622149285019772,-1,-5,-15,-15,4,8,-11,-9
1622149285019772,10,-6,-11,-18,-27,-12,11,14
1622149285032931,-2,6,9,21,2,25,66,5
1622149285032931,5,1,18,9,41,-38,-41,5
1622149285041852,0,-3,-6,4,10,-25,7,22
1622149285041852,-5,0,9,-5,-50,9,-14,-32
1622149285056959,9,-12,-15,-30,-36,13,-6,12
1622149285056959,-6,4,2,35,13,1,-38,3
1622149285071296,7,-2,-6,-49,-6,4,53,-1
1622149285071296,-28,-16,-11,11,54,3,-18,0
1622149285079864,-7,14,9,12,-11,-58,-10,-6
1622149285079864,20,-11,-9,-32,-46,51,38,16
1622149285080922,-11,4,6,20,-1,-42,-50,-10
1622149285080922,9,1,1,-16,47,20,2,-2
1622149285093841,3,2,3,5,-31,-17,3,-1
1622149285093841,-9,-4,-8,-7,-35,33,22,1
1622149285117711,-11,7,12,16,5,-4,-27,-26
1622149285117711,9,-6,-21,-26,11,-9,-23,3
1622149285117711,5,1,21,21,13,17,53,5
1622149285117711,6,-2,0,8,36,18,4,30
1622149285123819,4,-1,-2,-22,-24,11,7,-44
1622149285123819,-3,-2,-1,1,29,-15,-22,-1
1622149285139864,-13,-8,-14,-21,-48,10,-18,-16
1622149285139864,14,5,18,14,22,-23,18,8
1622149285140888,-3,-3,-10,7,0,-19,1,13
1622149285140888,-14,4,8,0,6,-6,0,-13
1622149285153856,8,-7,-13,9,-19,-9,-38,12
1622149285153856,-4,-1,-4,-25,24,5,81,6
1622149285162810,6,4,0,17,-3,-6,-50,15
1622149285162810,1,-5,-4,16,17,-4,12,7
1622149285176868,-5,5,0,-24,-33,-9,-13,-10
1622149285176868,-23,-7,-11,-13,-34,-48,-71,-26
1622149285183702,21,0,5,11,9,51,79,41
1622149285183702,-2,-4,-6,10,-20,40,2,-14
1622149285199880,-6,-8,-4,-5,28,23,-10,4
1622149285199880,4,7,1,-6,21,-15,-3,8
1622149285200986,-19,0,-3,-8,-7,-1,-26,-12
1622149285200986,6,4,16,22,-23,-25,0,3
1622149285213052,32,-2,-7,-5,8,-10,-18,1
1622149285213052,-31,-7,-3,-20,-7,21,-6,-3
1622149285221994,-4,-6,-8,-16,-41,7,2,-2
1622149285221994,7,0,-4,-4,-10,4,27,0
1622149285236957,0,0,0,30,32,-4,-21,-9
1622149285236957,-9,1,11,-6,-15,-33,-12,-14
1622149285242857,5,-1,-1,8,29,36,37,16
1622149285242857,4,-3,-5,3,-9,0,-14,-31
1622149285260005,-14,-3,-2,-21,-25,-19,34,-5
1622149285260005,13,-3,-8,3,5,5,-14,-16
1622149285261013,-6,-2,6,16,6,-6,-6,-5
1622149285261013,-4,10,-4,-34,-68,-14,-16,-1
1622149285273823,-3,-4,-1,31,57,20,12,18
1622149285273823,4,2,6,-8,-30,3,7,-10
1622149285282329,-5,-3,-3,25,11,-11,-54,-17
1622149285282329,20,5,13,-31,27,-17,99,37
1622149285297029,-4,-1,-2,-2,-19,-16,-66,-16
1622149285297029,-9,-5,-11,-4,36,33,13,9
1622149285303827,-13,-3,2,5,-17,-25,-11,0
1622149285303827,-2,-2,-12,-1,-20,5,-3,1
1622149285319885,-7,4,7,-14,1,-11,9,-9
1622149285319885,15,0,8,22,-32,-16,-3,-7
1622149285320991,-4,-1,-8,-13,58,10,-5,8
1622149285320991,-13,-7,-5,-11,-10,3,-11,-20
1622149285332945,3,2,-1,-10,-2,-5,11,14
1622149285332945,-6,0,-14,3,1,13,-13,-5
1622149285341839,14,-8,-3,-22,-2,18,21,6
1622149285341839,4,4,3,1,25,-10,8,-2
1622149285357003,1,-4,-4,9,-11,6,-6,35
1622149285357003,-4,1,11,-9,35,-2,17,-10
1622149285362988,-13,6,-4,5,-57,-18,-8,-5
1622149285362988,2,-11,-10,-16,-16,15,-23,-8
1622149285379863,-4,1,21,33,30,15,16,-7
1622149285379863,8,0,-9,-6,-6,-1,8,12
1622149285380999,-2,-7,-7,-14,4,-10,-10,-10
1622149285380999,-1,0,-3,5,6,4,2,13
1622149285394325,-6,1,1,8,6,4,9,-8
1622149285394325,4,-5,-12,-17,-25,-7,-7,3
1622149285402304,1,2,6,13,8,-1,-5,-4
1622149285402304,-3,1,-9,-8,5,2,-10,2
1622149285417051,-2,-1,16,18,2,7,12,-1
1622149285417051,0,-1,0,4,26,-5,-7,1
1622149285423814,3,6,-1,-6,1,-4,1,1
1622149285423814,-4,1,0,2,-24,-3,-3,3
1622149285439850,4,-10,-3,-10,14,3,-1,-6
1622149285439850,-4,3,8,11,6,4,4,3
1622149285440874,6,6,8,2,-17,-1,-2,5
1622149285440874,-10,-7,-13,-5,36,-4,-5,-2
1622149285454812,-2,5,32,4,-15,-1,4,1
1622149285454812,1,-8,-14,0,-8,-7,-6,-3
1622149285468748,-1,-4,8,15,6,4,6,1
1622149285468748,5,5,-1,-9,-11,2,-3,2
1622149285476729,1,-2,-22,-13,-42,-8,2,-3
1622149285476729,-2,-4,9,3,16,3,-1,-2
1622149285483828,-4,6,9,28,31,5,-5,-3
1622149285483828,4,0,10,2,-14,-6,-3,4
1622149285499845,-1,3,-8,-12,-16,-3,2,-2
1622149285499845,1,0,2,3,3,0,-4,1
1622149285500926,2,-2,-9,-7,-7,-3,-1,2
1622149285500926,-4,-8,4,24,11,10,-2,0
1622149285513465,-5,-1,-12,-12,0,-9,0,-2
1622149285513465,-3,-9,3,-3,-6,-5,-2,-1
1622149285522798,3,4,-2,-6,-4,2,1,-1
1622149285522798,1,16,3,-6,31,1,0,0
1622149285536878,3,-8,-7,3,-32,1,-6,-2
1622149285536878,-9,22,14,-6,8,6,3,1
1622149285542864,-11,-18,-13,0,25,-8,-13,-16
1622149285542864,5,-2,7,20,-5,1,5,5
1622149285559830,-5,7,-19,-10,25,-6,-8,-8
1622149285559830,4,-9,2,-11,-44,-7,-5,-3
1622149285561824,-1,-6,-5,-22,-85,-4,-2,-5
1622149285561824,-3,0,3,14,89,4,-3,1
1622149285573821,-4,-8,0,8,59,5,4,2
1622149285573821,4,-1,-11,-6,-89,0,5,0
1622149285582000,-4,5,8,1,112,2,3,2
1622149285582000,-4,-9,-12,4,-77,-10,-6,-4
1622149285595961,-2,0,-10,-32,-41,-3,-4,-6
1622149285595961,2,1,6,5,20,3,6,3
1622149285604529,2,4,-3,-12,-38,-1,4,6
1622149285604529,3,-2,3,3,-10,3,4,4
1622149285619878,-3,5,1,-12,25,3,4,0
1622149285619878,-10,-25,-8,34,45,1,-14,-9
1622149285621012,1,7,8,-9,-47,-4,-1,-1
1622149285621012,13,16,1,-3,30,-5,1,-2
1622149285633831,0,20,2,-12,-72,2,6,4
1622149285633831,-1,-4,-7,-30,17,-13,-3,2
1622149285642327,-2,2,22,26,42,1,-3,-5
1622149285642327,-2,-12,-2,7,-23,3,0,-2
1622149285665189,0,-3,3,5,26,12,-3,3
1622149285665189,-2,6,-8,-3,5,-15,0,0
1622149285666852,-4,-11,-12,5,2,-4,-6,-10
1622149285666852,-3,2,9,16,11,2,0,2
1622149285679849,2,-8,0,-16,0,-1,2,1
1622149285679849,-3,5,-4,12,36,6,-1,-4
1622149285680974,5,-1,4,4,-12,6,4,6
1622149285680974,-1,-7,-5,-28,-15,-1,0,3
1622149285692865,-3,-1,-5,4,-15,-11,-5,-9
1622149285692865,2,0,0,-15,27,1,2,2
1622149285717545,4,12,7,10,-44,9,8,10
1622149285717545,-8,-32,-7,22,45,6,-6,-10
1622149285718548,0,14,1,1,-3,-11,-3,-4
1622149285718548,2,10,-8,-49,11,-8,-7,0
1622149285724544,-2,-6,-4,43,91,10,-1,-3
1622149285724544,2,10,5,-12,53,3,5,-1
1622149285739829,-3,-19,-10,-19,-88,-12,-2,1
1622149285739829,2,-2,2,12,44,-1,0,1
1622149285740804,-1,1,-8,-19,9,-5,-2,-4
1622149285740804,-3,1,-1,5,-9,-7,-4,-1
1622149285753768,-1,-2,6,16,35,12,5,3
1622149285753768,1,3,-2,1,-28,1,0,-1
1622149285762746,-4,-8,-6,-12,-35,-14,-4,-3
1622149285762746,-1,5,-5,-17,-41,-1,0,2
1622149285775770,-2,-3,20,30,66,3,-4,-4
1622149285775770,-1,-2,-7,-1,-22,3,-2,-2
1622149285785360,0,-1,8,1,3,2,2,2
1622149285785360,1,2,-9,-10,-32,-8,-2,-3
1622149285799320,-2,1,-2,-1,54,2,-2,-4
1622149285799320,-4,-6,-2,11,6,-7,-3,-4
1622149285801344,2,4,-3,-25,3,7,3,3
1622149285801344,-1,-2,2,8,-82,-6,-2,0
1622149285822704,-5,1,5,35,39,15,5,1
1622149285822704,0,7,-2,-20,9,-16,-8,-4
1622149285823703,2,-3,-3,-10,0,0,2,2
1622149285823703,-6,-3,-1,27,53,-12,-4,-4
1622149285836316,7,-35,-3,9,0,-1,1,1
1622149285836316,0,-1,5,16,-13,17,5,5
1622149285845294,1,0,-6,-38,-25,-16,-2,-3
1622149285845294,-1,4,-1,-3,15,1,-4,2
1622149285859423,-4,-3,-5,-5,-11,7,-2,0
1622149285859423,-3,-5,3,0,-6,4,0,-2
1622149285866352,-2,-6,-4,6,-30,-18,-6,-3
1622149285866352,-3,-3,4,-2,-1,11,0,3
1622149285872865,-4,3,-9,-28,-7,2,-3,-4
1622149285872865,3,1,3,1,-24,-8,3,2
1622149285882397,-7,3,-9,-15,20,10,0,-2
1622149285882397,-1,8,3,5,-2,8,-2,-4
1622149285905163,4,6,-2,-17,-16,-15,1,3
1622149285905163,-3,3,-1,8,6,1,4,2
1622149285905955,-5,-9,-3,8,-13,-1,-8,-9
1622149285905955,-2,-5,-7,-17,21,-2,-3,-4
1622149285919489,0,3,-1,-1,-7,-7,1,1
1622149285919489,1,-1,1,2,-26,9,1,0
1622149285925785,0,-1,0,5,-17,-4,-1,-3
1622149285925785,-1,-3,-6,-11,28,-18,-5,-1
1622149285941977,-1,6,0,1,-29,-4,-3,-2
1622149285941977,-1,1,0,3,14,6,0,-2
1622149285943971,-1,-4,-3,2,-5,-10,-2,0
1622149285943971,-1,2,3,-3,-9,3,2,1
1622149285956064,2,1,1,6,8,3,1,-3
1622149285956064,1,-3,-5,-10,-8,-8,-4,-3
1622149285964595,-2,1,3,8,2,0,-1,3
1622149285964595,2,-1,4,0,-16,6,0,2
1622149285986956,0,0,-3,-2,6,-3,-2,-4
1622149285986956,-2,-3,-1,1,-8,-5,-1,1
1622149285993178,-1,1,0,5,1,5,-1,1
1622149285993178,1,-1,0,-1,-3,2,2,-2
1622149286001972,-1,-1,-3,-1,-2,-7,-2,-1
1622149286001972,-1,2,1,1,0,3,0,1
1622149286004321,1,0,1,0,-2,3,-1,0
1622149286004321,-1,-1,-3,-1,5,-5,0,-3
1622149286025117,-2,0,0,4,-1,-1,-1,2
1622149286025117,1,-1,-1,-1,-5,1,0,-1
1622149286025782,2,-3,-3,-2,4,-3,0,-4
1622149286025782,-3,-2,-1,-3,-14,-2,0,0
1622149286039428,-2,1,0,1,4,3,0,-1
1622149286039428,-1,-2,-2,-2,2,-1,-2,-3
1622149286045815,-4,0,0,0,-3,-6,-2,-1
1622149286045815,-2,1,3,-2,-4,3,-1,-1
1622149286061752,0,-2,-1,-1,4,1,-2,-2
1622149286061752,-1,-4,-2,-5,-4,-4,-2,-4
1622149286063748,0,-1,0,4,1,3,0,1
1622149286063748,-1,1,-1,0,-6,5,0,0
1622149286075424,-3,-1,-2,-2,-2,-3,-1,-3
1622149286075424,-1,-1,-1,0,0,2,-1,0
1622149286084600,-2,0,2,1,3,5,0,2
1622149286084600,-2,-3,-2,-4,-4,-6,-2,-3
1622149286099488,0,0,-3,-1,-2,-3,-1,-2
1622149286099488,-3,-1,0,0,-2,1,1,-1
1622149286106398,0,-1,0,1,2,-4,1,-1
1622149286106398,0,-1,-1,-3,-2,-6,-2,-2
1622149286122734,-1,0,1,2,0,3,0,1
1622149286122734,-2,0,-2,1,-4,-1,-1,0
1622149286123733,-1,-3,-4,-2,-3,-4,-3,-3
1622149286123733,-2,-1,0,-3,-5,1,0,1
1622149286144855,-1,0,0,2,2,3,0,1
1622149286144855,1,-1,0,-2,-2,-4,-1,-2
1622149286145849,-2,-2,-1,0,0,-1,0,-3
1622149286145849,0,-1,0,1,1,2,1,1
1622149286158792,-1,-3,-2,-1,-2,-5,-3,-1
1622149286158792,-1,-1,-4,-3,-1,-4,-2,-2
1622149286165805,-1,-1,1,2,0,4,-1,1
1622149286165805,0,0,0,0,-2,-2,1,0
1622149286182391,-2,-3,-2,-5,0,-5,-2,-3
1622149286182391,-3,-2,0,0,-2,2,-2,0
1622149286184396,0,0,1,-1,-3,-2,0,1
1622149286184396,-1,-3,-2,-2,2,-6,-1,-3
1622149286196392,0,1,-2,-2,0,3,-1,-2
1622149286196392,-2,0,1,1,-1,3,1,1
1622149286205360,0,0,-3,0,-2,-3,1,-1
1622149286205360,1,-2,-1,-1,-2,-2,-3,-2
1622149286219001,-2,-1,0,-1,0,3,0,2
1622149286219001,-1,0,0,-1,-2,-3,0,0
1622149286233850,-1,-4,-5,-2,0,-4,-2,-3
1622149286233850,0,0,0,-1,0,2,1,0
1622149286241830,0,-1,2,0,-7,-3,-1,1
1622149286241830,-1,-1,-2,1,3,-7,0,-2
1622149286243826,-1,-1,-1,-2,10,1,-3,-3
1622149286243826,-1,-1,0,-1,-1,4,-1,3
1622149286265602,-1,-2,-2,-1,-2,-7,0,-1
1622149286265602,1,-3,-3,-2,-4,-3,-3,-4
1622149286267337,-2,0,0,2,-2,2,0,-1
1622149286267337,-2,1,-1,0,-1,-4,-3,-1
1622149286279490,-2,-2,-2,-2,-1,0,-1,-3
1622149286279490,-1,0,-1,-2,1,6,0,1
1622149286302489,-1,0,-1,0,-3,-2,0,1
1622149286302489,-1,-2,-2,-3,-3,-5,-2,-4
1622149286303470,-1,0,-1,-2,0,0,-3,-1
1622149286303470,-2,-1,0,1,-1,0,1,0
1622149286305803,1,0,-2,-2,-3,-4,-1,0
1622149286305803,0,0,-3,-2,-3,0,-1,-2
1622149286316366,0,2,-1,2,2,3,0,0
1622149286316366,-1,-2,0,1,-2,-2,0,0
1622149286324533,-1,-2,-3,-3,-3,-2,-2,-2
1622149286324533,0,-2,0,1,-2,3,0,1
1622149286346854,0,-2,-1,1,-1,0,2,0
1622149286346854,-1,0,-2,-1,-1,-5,-1,-3
1622149286348823,0,0,0,1,0,1,-2,-2
1622149286348823,-1,-1,0,0,-2,1,-1,2
1622149286361789,-1,0,-2,-4,0,-5,-2,0
1622149286361789,-1,-2,-2,-1,-3,0,-2,-2
1622149286363782,-1,0,0,0,0,1,1,1
1622149286363782,-1,-1,-2,0,-3,-3,0,-2
1622149286375898,-1,-1,-2,-3,1,-3,-1,-2
1622149286375898,-1,-2,0,0,0,3,0,0
1622149286391375,-1,0,0,-2,-1,0,0,1
1622149286391375,-2,-3,-2,-2,-1,-3,-1,-4
1622149286399538,-2,-2,-1,0,-2,0,-1,0
1622149286399538,-1,1,0,-1,-2,-1,0,2
1622149286422959,-1,-2,-1,-2,-2,-5,-1,-3
1622149286422959,2,-2,-3,-1,1,-1,-1,-2
1622149286424160,-2,0,1,-1,0,3,-1,1
1622149286424160,-1,-1,-1,0,-2,-3,0,1
1622149286425159,0,-2,-1,-4,-3,-2,-2,-2
1622149286425159,-2,1,1,-2,0,2,0,1
1622149286436299,-1,-2,1,2,0,0,-2,0
1622149286436299,0,-2,-3,-2,-1,-4,-2,-3
1622149286452258,-1,-1,-1,1,0,1,0,0
1622149286452258,-2,-1,0,-1,-1,1,-1,0
1622149286459303,-1,-1,-1,-2,-1,-3,-2,-1
1622149286459303,0,-1,-2,0,-3,-1,-2,-3
1622149286466362,-1,0,2,1,-2,3,0,2
1622149286466362,-3,0,-1,0,0,-3,-1,0
1622149286482406,-1,-1,-2,-2,-2,-2,-1,-2
1622149286482406,1,1,0,-2,0,1,-1,1
1622149286484429,-1,0,-2,-1,-2,-1,1,0
1622149286484429,-2,0,-2,-2,-1,-6,-2,-2
1622149286496822,0,-1,-2,1,-3,1,-2,-2
1622149286496822,-1,-2,-1,0,1,0,-1,0
1622149286504931,-2,0,-3,-2,-1,-4,-1,-2
1622149286504931,1,-4,-3,-1,0,-2,0,-2
1622149286519524,-1,0,0,0,-1,1,-1,1
1622149286519524,-2,-2,-1,-1,-2,-2,0,0
1622149286542854,1,-1,-3,-2,-2,-4,-1,-3
1622149286542854,-1,0,0,1,-1,3,-2,2
1622149286543827,-1,1,1,0,-1,1,0,0
1622149286543827,1,-2,-2,-5,0,-2,-2,-5
1622149286544845,-1,-1,0,0,-1,1,-3,-1
1622149286544845,-2,2,1,1,0,1,1,2
1622149286555820,0,-3,-2,-3,0,-5,0,-1
1622149286555820,-1,-2,-2,-1,-1,-3,-1,0
1622149286580943,0,-2,2,2,0,2,0,-1
1622149286580943,0,-1,-2,-1,-1,-2,-2,-2
1622149286581909,-1,-3,-3,-2,-1,-5,-1,-4
1622149286581909,-1,-1,-1,1,-1,2,0,1
1622149286593874,-3,0,-1,0,-1,-1,0,0
1622149286593874,0,-2,0,-2,-2,-3,0,-3
1622149286601955,-1,1,-1,1,-1,1,0,2
1622149286601955,-1,0,-1,-1,-2,2,-1,1
1622149286603844,0,-2,-3,-2,0,-4,0,-1
1622149286603844,0,-1,-1,0,-1,-1,0,-3
1622149286616376,-2,1,1,0,0,0,-1,1
1622149286616376,-1,1,-1,-3,-3,-3,-2,-1
1622149286624535,-2,-2,-3,-2,-3,-4,-2,-2
1622149286624535,0,0,0,-1,-1,3,-1,0
1622149286638982,-1,-2,-1,0,-3,2,0,-1
1622149286638982,0,-2,-2,-1,0,-3,-3,-3
1622149286653886,-1,-1,1,1,1,1,0,1
1622149286653886,0,0,-1,0,-1,0,-1,1
1622149286669872,0,0,-1,-4,-2,-3,0,-4
1622149286669872,-1,-1,-1,0,-1,0,-2,-2
1622149286670994,-1,0,0,0,0,2,-1,1
1622149286670994,-1,-3,-1,-2,-1,-2,-2,-1
1622149286676111,-1,-1,-3,-3,-2,-3,-1,-1
1622149286676111,0,-2,1,0,0,1,-1,-1
1622149286700904,0,1,0,-2,-3,0,-2,-2
1622149286700904,-1,-1,-3,-2,-1,-4,-2,-4
1622149286701858,-1,-1,-1,-1,0,0,-2,-2
1622149286701858,-2,-2,0,2,0,0,0,1
1622149286706400,-1,-1,-3,-3,-1,-4,-2,-2
1622149286706400,0,-1,-1,-2,0,-1,0,-1
1622149286722759,0,1,1,0,1,1,-1,1
1622149286722759,-3,0,0,-2,-3,-1,1,-1
1622149286723759,-1,-2,-1,-2,0,-1,-3,-3
1622149286723759,-1,0,-1,1,-1,1,-1,1
1622149286736340,-2,-1,-2,-1,-1,1,0,1
1622149286736340,1,0,-2,-3,-2,-2,0,-4
1622149286745318,-1,-3,-1,0,0,2,-1,-1
1622149286745318,-1,-1,-1,-1,-1,1,-1,1
1622149286759380,-1,-1,-1,-1,-1,-3,-2,-2
1622149286759380,2,-2,-2,-2,0,-2,1,-2
1622149286773845,-2,0,0,1,-1,1,2,0
1622149286773845,-2,0,-1,-1,-1,-1,-1,-2
1622149286781584,1,0,-3,-2,-1,-2,0,-4
1622149286781584,-1,-1,0,1,-1,3,-2,1
1622149286788576,1,1,-1,-2,-2,-3,0,-1
1622149286788576,-1,-2,-3,-4,-1,-3,-1,-2
1622149286795548,0,1,1,1,-1,2,-1,0
1622149286795548,-2,-1,2,0,-3,-1,0,1
1622149286820928,0,-2,-3,-3,-1,-3,-2,-3
1622149286820928,0,-1,-2,0,-1,0,-1,0
1622149286821860,0,-1,0,0,0,0,1,0
1622149286821860,-2,-1,-2,-3,0,-2,-1,-3
1622149286825851,0,0,-2,-1,1,-3,-1,-2
1622149286825851,-1,1,1,-1,-3,0,-1,1
1622149286841852,-3,-1,-3,-2,-1,1,-1,0
1622149286841852,-1,-1,-2,-1,-1,-3,-2,-3
1622149286855862,0,-2,1,1,0,1,0,0
1622149286855862,-2,-1,0,1,-1,1,0,0
1622149286865169,-3,-3,-2,-3,-1,-3,0,-3
1622149286865169,2,-1,-1,-2,-2,0,-2,0
1622149286865988,-4,-1,0,1,-4,1,0,2
1622149286865988,-2,-1,-2,-1,0,-3,0,-2
1622149286879493,-1,-1,-3,-3,-2,-3,-4,-2
1622149286879493,-2,0,1,0,1,1,0,2
1622149286893825,0,-1,-2,0,-2,-1,1,0
1622149286893825,-1,-1,-2,-4,-1,-3,0,-4
1622149286901798,0,0,0,0,0,0,-1,0
1622149286901798,-1,-1,1,2,0,1,0,-2
1622149286908757,-1,-1,-2,-3,-1,-3,-1,-3
1622149286908757,0,-1,-1,-1,-1,-1,-2,0
1622149286915755,-2,0,0,2,-2,1,0,0
1622149286915755,-2,-1,-3,-1,-1,-2,-2,-1
1622149286932334,0,-2,-3,-2,-2,-2,-2,-3
1622149286932334,-1,0,1,0,-1,1,0,1
1622149286939357,-1,-2,-1,-2,-2,-2,0,0
1622149286939357,-2,-1,-2,-2,-2,-4,0,-1
1622149286946329,0,-2,0,-1,-1,0,0,1
1622149286946329,-2,0,0,-2,0,1,-1,0
1622149286977456,0,-3,-2,0,-1,-3,-2,-2
1622149286977456,-1,0,-1,0,1,0,0,-1
1622149286978424,-1,-2,0,1,-1,1,-1,1
1622149286978424,0,-2,0,-2,-2,-3,-1,-1
1622149286985130,-1,-2,-2,-1,-2,-2,-1,-3
1622149286985130,-2,1,-1,1,0,1,0,0
1622149286986796,-3,0,0,-2,0,-1,0,0
1622149286986796,0,-2,-1,-1,-1,-2,0,-2
1622149286998759,0,1,0,-2,-1,1,0,1
1622149286998759,-2,-2,1,-1,-3,0,0,0
1622149287013717,-1,0,-2,-2,-2,-2,-1,-3
1622149287013717,0,0,-1,0,0,0,-2,-1
1622149287022018,0,0,2,-1,0,-1,0,-1
1622149287022018,0,-3,-3,-3,-2,-2,-2,-3
1622149287027975,-1,-3,-2,-2,-2,-4,-1,-3
1622149287027975,-1,-1,0,2,0,0,1,1
1622149287051815,-2,-1,-1,0,0,-1,-1,-1
1622149287051815,-1,-2,0,-2,-1,-3,-1,-2
1622149287053810,-1,-1,0,0,2,0,0,2
1622149287053810,-1,-2,0,0,1,1,0,-1
1622149287058797,-1,-2,-3,-2,-2,-2,-2,-3
1622149287058797,0,-1,-3,1,-1,-2,-1,1
1622149287066389,-2,1,1,0,-3,1,0,1
1622149287066389,-1,0,-3,0,-2,-1,0,-2
1622149287089987,1,-2,-1,-2,-1,-1,-3,-2
1622149287089987,-1,-1,1,1,1,2,0,1
1622149287095942,0,-2,-1,-2,-1,-1,-1,-1
1622149287095942,-1,-2,-3,-3,-1,-2,-1,-4
1622149287104939,-3,-3,0,-1,-1,0,1,1
1622149287104939,-2,0,0,0,-1,1,0,1
1622149287105911,0,0,-3,-2,0,-4,-3,-3
1622149287105911,-1,1,0,-1,-1,-2,-2,-1
1622149287119874,-1,-1,0,0,1,0,0,1
1622149287119874,0,-1,-1,-2,1,-2,-3,-3
1622149287134547,-1,-2,-1,-1,-1,-2,-1,-3
1622149287134547,-1,-2,0,0,0,1,0,1
1622149287141530,-1,-1,-1,0,-1,1,0,-1
1622149287141530,1,0,-4,-4,0,-3,-1,-2
1622149287148512,0,0,0,1,0,0,-1,0
1622149287148512,0,-1,0,0,-2,0,-3,0
1622149287172719,-1,-2,-2,-1,-1,-3,-1,-4
1622149287172719,-1,-2,-1,1,-2,0,-1,-2
1622149287173720,-1,-1,1,1,-2,1,-1,1
1622149287173720,-2,-2,-2,-2,-2,-3,-1,0
1622149287179517,1,0,-2,-2,0,-2,-1,-1
1622149287179517,0,0,1,0,-2,2,-1,1
1622149287185382,-1,-2,-3,-3,-2,0,-3,-2
1622149287185382,0,-2,-3,-2,-1,-2,-3,-2
1622149287209366,-1,1,0,1,-1,0,-1,1
1622149287209366,2,-2,0,-2,-1,-1,0,0
1622149287211361,-2,-1,-2,-3,1,-3,0,-2
1622149287211361,-2,-1,0,0,0,0,-1,0
1622149287225368,-1,0,0,1,-2,0,0,1
1622149287225368,-3,-1,-2,-1,-2,-3,0,-1
1622149287226369,-1,-3,-2,-1,-1,-2,-2,-1
1622149287226369,-1,0,0,0,-1,1,0,-1
1622149287247347,-2,0,-2,-1,-1,-2,-1,-1
1622149287247347,-1,-2,-1,-5,-2,-4,-2,-4
1622149287255298,1,0,1,1,-1,2,0,1
1622149287255298,-2,-2,0,0,0,-1,-1,1
1622149287261138,0,-4,-2,-4,1,-5,-2,-2
1622149287261138,-1,0,0,-1,-1,1,-1,0
1622149287268842,-3,-2,-1,-1,-1,0,1,1
1622149287268842,0,-1,-2,-2,-1,-3,-2,-1
1622149287291840,1,-3,-2,0,0,-1,-1,-1
1622149287291840,-2,0,1,1,0,1,-1,1
1622149287294834,-1,2,-2,0,-1,-1,1,-1
1622149287294834,0,-2,-3,-2,-2,-3,-3,-2
1622149287298842,0,0,0,0,-1,0,-1,0
1622149287298842,-1,-1,-1,1,0,-1,-1,0
1622149287307798,1,-2,-3,-1,0,-4,-2,-3
1622149287307798,-2,0,0,0,-1,0,-1,1
1622149287329762,-1,0,0,0,0,1,0,1
1622149287329762,-2,-2,-3,-2,-1,-1,-2,-2
1622149287331756,0,-1,-1,0,-1,-1,0,-2
1622149287331756,0,-1,0,2,-1,0,0,-1
1622149287344695,-1,-1,0,-3,-4,-3,0,-2
1622149287344695,-1,-1,-2,-2,1,-2,0,-3
1622149287346690,-1,1,2,1,-1,2,-1,1
1622149287346690,0,-1,-1,-1,-2,0,-1,0
1622149287366785,-1,-1,-3,-2,-2,-2,-1,-4
1622149287366785,1,0,0,-1,-1,0,-1,-1
1622149287382684,-1,0,0,0,0,0,-2,0
1622149287382684,0,-2,-2,-2,0,-2,0,-2
1622149287382684,-1,-1,-3,1,-1,-1,-1,0
1622149287382684,-2,-2,1,1,-1,-1,-1,2
1622149287388698,-2,0,-2,-1,-2,-2,-1,-1
1622149287388698,-1,-2,-2,-2,-2,-3,-1,-2
1622149287412668,-1,0,1,2,-1,1,0,1
1622149287412668,0,0,-1,0,-2,-1,0,0
1622149287413605,-1,-2,-2,-3,-2,-4,-1,-2
1622149287413605,-1,-1,0,-2,-2,-1,-1,0
1622149287418830,0,0,1,-1,0,2,-1,1
1622149287418830,-2,-2,-2,-2,-2,-4,-3,-2
1622149287427156,1,0,-1,-1,0,1,-1,-3
1622149287427156,-1,1,0,0,1,4,0,1
1622149287449884,-1,-1,-3,-1,0,-4,0,0
1622149287449884,0,-2,-3,-2,-2,-2,-1,-2
1622149287451905,1,-1,1,0,-2,-1,-1,1
1622149287451905,-1,-1,0,0,2,0,0,-1
1622149287465217,-2,-3,-3,-4,-2,-3,-2,-4
1622149287465217,0,-2,0,1,-3,1,0,0
1622149287466881,-2,-3,0,0,3,1,-1,1
1622149287466881,-3,-2,-2,-2,-4,-2,-2,-3
1622149287487771,-1,-3,1,0,-2,-1,-2,-1
1622149287487771,-1,2,-1,0,0,1,1,1
1622149287489768,0,-1,-2,-2,-3,-3,0,-2
1622149287489768,1,-1,-2,-3,0,-3,-1,-3
1622149287502108,-1,-1,2,1,-1,1,0,1
1622149287502108,-1,-2,0,-3,-6,1,-1,-1
1622149287508767,-1,-1,-3,-2,4,-3,-2,-4
1622149287508767,-1,0,0,1,-2,0,-1,0
1622149287524881,-1,1,-1,2,3,0,-1,0
1622149287524881,0,-2,-2,-4,-1,-4,0,-2
1622149287531357,0,0,0,0,-1,0,0,0
1622149287531357,1,-1,0,2,11,1,-1,1
1622149287538851,-1,0,-3,-2,-7,-3,0,-1
1622149287538851,-1,-2,-3,-2,-4,-2,-2,-3
1622149287547809,-2,-1,-1,0,-7,0,0,1
1622149287547809,0,0,-2,-1,4,0,0,0
1622149287577717,-1,-1,-3,-2,5,-1,-2,-3
1622149287577717,-1,1,0,2,-1,2,-2,2
1622149287578719,-1,-2,0,0,1,-1,-1,0
1622149287578719,-1,-1,-1,-3,-8,-4,-2,-1
1622149287585170,-1,-1,1,0,0,-1,-1,-1
1622149287585170,-1,-2,2,1,0,1,-1,0
1622149287586801,-1,-3,-1,-2,-4,-2,-2,-1
1622149287586801,-1,0,-2,-1,-6,-3,-1,-3
1622149287607717,-2,0,0,0,7,1,-1,1
1622149287607717,-1,1,-2,-2,1,0,-1,-1
1622149287608717,0,-1,-3,-4,-7,-5,0,-3
1622149287608717,0,-2,-2,-1,3,1,-1,-1
1622149287621737,-2,-1,0,2,3,2,0,1
1622149287621737,-1,-1,-3,-4,-2,-3,-1,-3
1622149287628913,0,-1,0,-2,2,-1,-1,1
1622149287628913,0,0,1,-3,-3,1,-1,1
1622149287660031,1,-1,-2,-2,-7,-2,-2,-2
1622149287660031,1,-1,-1,0,4,-2,0,-3
1622149287662024,1,-1,0,0,-1,2,0,1
1622149287662024,-1,-2,-1,0,-2,0,-1,-1
1622149287663021,-1,-2,-2,-2,-2,-3,0,-1
1622149287663021,-3,-1,0,1,-2,0,0,-1
1622149287667121,-2,0,0,0,0,1,-2,0
1622149287667121,-1,-3,-4,-1,-3,-3,-1,-1
1622149287689352,2,-1,-1,-1,9,1,0,-1
1622149287689352,-1,-1,-1,-2,-17,-1,-1,0
1622149287691369,-2,-1,-2,0,3,-1,0,-1
1622149287691369,-2,0,-1,-2,-1,-4,-1,-2
1622149287704339,-2,-1,0,0,-2,0,0,0
1622149287704339,-1,-1,1,0,4,0,-2,-1
1622149287711310,-1,-1,-4,-1,8,-2,-2,-3
1622149287711310,0,0,1,0,-8,0,0,0
1622149287727709,-2,-2,-1,-3,-7,-2,0,0
1622149287727709,-1,1,-2,-1,0,-2,0,-4
1622149287728712,-1,-2,0,0,-5,-2,-2,-1
1622149287728712,1,-1,1,3,2,1,-1,1
1622149287741825,-1,0,-2,-3,-6,-2,-1,-2
1622149287741825,0,-2,-3,-1,2,-4,-3,0
1622149287748805,-1,-2,1,-1,-1,1,1,0
1622149287748805,0,0,-1,-3,-1,-3,-1,-1
1622149287764618,-1,-1,-1,-2,-2,-3,-2,-3
1622149287764618,-1,0,-1,2,2,1,0,0
1622149287778989,-2,2,0,1,0,1,-2,0
1622149287778989,-2,0,-4,-5,-2,-3,-1,-2
1622149287779880,0,-2,-2,0,-2,0,0,-1
1622149287779880,-2,1,0,1,2,2,0,1
1622149287787115,-1,-1,-3,-3,-4,-4,-1,-2
1622149287787115,-2,-2,-2,-1,-1,-2,-1,-4
1622149287810142,-1,-1,0,1,0,0,-1,0
1622149287810142,-1,-2,-1,-3,-2,-3,0,0
1622149287811139,0,0,-3,-1,-1,-3,-2,-2
1622149287811139,-2,0,0,1,-1,2,1,0
1622149287824673,0,-1,-1,0,-2,0,-2,-2
1622149287824673,-1,0,-4,-2,-1,-2,-2,-3
1622149287831390,-1,-1,1,-1,-2,1,1,-1
1622149287831390,-2,-1,-1,0,1,0,0,1
1622149287847332,-1,-1,-1,-2,-2,-3,-1,-1
1622149287847332,1,-1,-1,-2,3,-2,-1,-1
1622149287849304,0,-1,-1,1,-3,3,0,0
1622149287849304,-1,-1,-2,0,-1,-1,-2,-2
1622149287861347,1,-2,-2,-3,-1,1,-2,-3
1622149287861347,-2,-1,2,-2,0,0,0,0
1622149287868889,-2,1,0,1,-2,-1,-1,0
1622149287868889,0,-1,-2,-2,-2,-3,-2,-2
1622149287883875,-1,-1,0,1,2,-2,0,1
1622149287883875,1,0,-1,1,-1,0,1,2
1622149287891389,0,-2,-2,-2,-2,-2,-1,0
1622149287891389,0,-2,1,-3,-1,-1,-2,-2
1622149287907747,-1,0,0,0,-3,1,1,0
1622149287907747,0,-1,-1,0,4,0,-2,-1
1622149287908395,0,-2,-2,-4,-5,-2,-1,-3
1622149287908395,-1,-1,0,-1,-4,0,-2,1
1622149287929859,-3,-1,0,-1,-2,-1,0,1
1622149287929859,-1,-1,-2,-3,-1,-3,-2,-2
1622149287931121,0,0,0,3,-1,0,0,0
1622149287931121,0,1,-1,0,1,0,-1,-1
1622149287943847,-1,0,-1,-2,-2,-3,-1,-3
1622149287943847,0,-1,0,0,2,-3,-1,-1
1622149287950834,-2,-1,-1,0,2,0,-1,1
1622149287950834,0,-1,0,-1,-3,-1,-1,-1
1622149287967764,0,0,-2,-2,-3,-3,-2,-2
1622149287967764,-2,0,1,1,1,1,0,0
1622149287968766,-1,-1,-1,0,0,0,-2,-2
1622149287968766,-1,-2,-4,-3,1,-2,-1,-2
1622149287982045,0,0,0,1,-2,1,-1,1
1622149287982045,-1,-1,1,0,-8,-1,0,0
1622149287988339,-1,-2,-1,-1,8,-2,-2,-1
1622149287988339,-2,-2,-2,-1,0,-2,-2,-2
1622149288004690,0,-1,-1,0,-3,1,0,0
1622149288004690,-2,-2,-2,-1,-1,-1,1,0
1622149288011323,0,-2,-4,-1,-3,-4,-2,-4
1622149288011323,1,1,2,3,4,1,0,2
1622149288027794,-2,-1,-1,0,0,0,0,1
1622149288027794,-1,0,-4,-3,1,-5,-2,-5
1622149288028794,0,0,0,-1,-11,-3,-2,1
1622149288028794,-1,-1,0,0,-4,1,-1,0
1622149288041874,-1,-3,-3,-2,-4,-2,-1,-3
1622149288041874,1,-1,0,0,5,0,-1,-3
1622149288047881,-1,-1,2,0,-2,1,1,0
1622149288047881,0,-1,-2,0,-2,-2,-2,-3
1622149288064594,-1,-3,-2,-5,-1,0,-4,-2
1622149288064594,0,0,1,-1,-5,2,0,0
1622149288087862,-1,-2,-1,1,8,1,0,-1
1622149288087862,0,-3,-2,-1,3,-2,-1,-4
1622149288089838,-2,1,1,0,-8,1,1,1
1622149288089838,0,-1,-1,-1,-2,-1,-2,0
1622149288091833,-1,-2,-3,0,6,0,-2,-1
1622149288091833,-1,-1,-1,-2,-4,-1,0,0
1622149288102089,-1,0,-1,2,11,2,-2,0
1622149288102089,0,-2,0,-1,-4,2,-2,0
1622149288108048,0,-1,-2,-2,2,-10,-2,-3
1622149288108048,0,-1,0,-4,-6,0,-1,1
1622149288124979,-2,0,-1,-1,4,-6,-3,-1
1622149288124979,-1,-1,-2,-2,-7,-5,-2,-2
1622149288131390,-2,-1,0,-2,7,11,-1,0
1622149288131390,-3,0,1,1,-3,-3,-1,1
1622149288147970,0,0,-1,-1,1,-2,0,-3
1622149288147970,0,-1,-2,-1,-1,0,-1,-2
1622149288148967,0,-2,1,0,-4,0,-1,0
1622149288148967,0,-2,-2,0,2,-3,-1,-3
1622149288161808,1,-3,-2,-3,-6,0,-3,-1
1622149288161808,-1,1,1,3,13,0,1,-1
1622149288168844,-1,0,-1,-3,-24,-2,0,1
1622149288168844,-2,-1,-2,0,-5,0,-2,-3
1622149288184505,-1,1,0,1,4,-2,-1,0
1622149288184505,-2,-1,1,0,-2,1,-1,0
1622149288207554,-1,0,-3,-4,-1,-3,-1,-1
1622149288207554,-1,1,0,-1,6,0,0,0
1622149288208454,-2,-1,0,0,-1,2,0,0
1622149288208454,-1,-1,-4,-3,-15,-4,-1,-1
1622149288210450,1,-1,-2,0,3,-3,-2,-3
1622149288210450,0,-2,0,1,1,1,1,1
1622149288222131,0,0,-1,0,8,0,1,-3
1622149288222131,-1,-2,-2,-2,1,-1,0,-3
1622149288228897,-2,-1,0,-2,-9,-3,-2,-2
1622149288228897,-1,-1,-1,0,-3,4,-1,1
1622149288243990,-1,0,-3,-3,-3,-3,-2,-3
1622149288243990,-1,-1,0,-1,0,0,-1,-1
1622149288250971,0,1,1,1,2,2,0,1
1622149288250971,0,1,-2,-1,0,-1,0,-3
1622149288267805,1,-1,-3,-4,-3,-4,0,-1
1622149288267805,0,0,0,0,0,0,-1,1
1622149288268805,-2,-3,-1,0,5,-1,0,-1
1622149288268805,-2,-3,-3,-2,-2,-3,-2,-2
1622149288282028,-2,-1,0,0,-1,0,-1,2
1622149288282028,0,-2,0,-1,-4,0,0,1
1622149288288352,-1,-3,-2,-3,4,-3,-1,-3
1622149288288352,-2,-2,0,-1,1,-2,-1,-1
1622149288304309,0,0,1,1,0,1,-1,1
1622149288304309,-3,-2,-2,-3,-13,-4,-2,-2
1622149288311287,1,-1,-3,0,24,2,0,-3
1622149288311287,1,0,2,-1,-3,-3,-2,0
1622149288325882,1,-1,0,-1,-1,-2,0,-1
1622149288325882,-1,0,-4,-1,10,-3,-1,-3
1622149288334859,-1,1,0,-2,-27,-2,0,0
1622149288334859,-2,-1,-1,-2,2,-1,-4,0
1622149288341839,0,-2,0,-3,0,-2,-2,-1
1622149288341839,-1,-1,-1,-1,7,0,-1,1
1622149288365230,-2,-1,2,1,-2,0,0,1
1622149288365230,0,-2,1,-1,1,-1,0,0
1622149288365782,0,-2,-4,-1,-11,-1,1,-2
1622149288365782,0,-2,1,0,-1,0,1,0
1622149288370772,-1,-1,0,0,28,0,-1,-1
1622149288370772,-2,-1,-3,-3,-34,-6,-2,-5
1622149288387748,-2,-1,1,1,7,1,0,1
1622149288387748,0,0,-2,-1,3,1,-1,1
1622149288389746,-2,-2,-4,-3,-15,-6,-1,-2
1622149288389746,-1,1,-1,2,9,1,2,0
1622149288401360,-1,0,0,0,-4,-1,1,1
1622149288401360,-1,-1,-3,-1,4,-3,-2,-3
1622149288409857,0,-2,-2,-2,-6,0,-2,-2
1622149288409857,1,0,-1,1,3,3,0,1
1622149288423890,-1,-2,0,-1,-5,-3,-1,-3
1622149288423890,1,-3,-2,-1,-2,-3,0,-2
1622149288438917,-2,0,-1,1,1,-1,-1,1
1622149288438917,-2,-1,0,-1,1,0,0,0
1622149288446804,-1,-1,-3,-3,6,-2,0,-3
1622149288446804,-1,-1,-1,-1,-3,-2,-2,0
1622149288448781,0,-2,-1,1,-5,1,1,1
1622149288448781,-1,-2,-3,-3,2,-2,-1,-2
1622149288460927,-2,-2,-1,-2,-1,-3,-4,-2
1622149288460927,-2,0,1,1,-1,0,1,0
1622149288475676,-1,-1,-3,-2,-4,-1,0,0
1622149288475676,-2,-3,-4,-3,2,-4,-2,-2
1622149288484604,-2,0,-1,1,1,3,-1,0
1622149288484604,-2,-1,-1,0,-3,0,0,0
1622149288490696,-1,-2,0,-4,0,-3,-1,-5
1622149288490696,0,-2,-1,0,1,2,-2,0
1622149288507752,-2,0,0,0,-2,0,-1,-1
1622149288507752,1,1,-2,-1,-2,-3,-1,-4
1622149288508752,0,0,-1,-1,-3,-1,-1,-1
1622149288508752,0,0,1,-1,3,2,0,2
1622149288521356,0,-1,-1,-1,-3,0,-2,-1
1622149288521356,-1,-2,-2,-1,-1,-3,-1,-1
1622149288529810,0,-1,1,0,6,1,-1,1
1622149288529810,-1,2,-1,-1,-13,-2,-2,0
1622149288543796,0,0,-2,-1,4,-3,-3,-1
1622149288543796,-2,-1,1,-2,-1,1,-1,0
1622149288558750,-1,1,-1,1,2,3,-1,1
1622149288558750,-1,-1,-4,-3,3,-1,-1,-1
1622149288567756,0,-1,-1,-1,-4,-2,1,-2
1622149288567756,-2,0,0,-1,-1,-1,1,0
1622149288568730,-2,0,0,-1,0,-1,0,0
1622149288568730,-2,-3,-3,0,0,-2,-1,-3
1622149288580922,-1,0,0,-1,-2,0,0,0
1622149288580922,-1,-1,0,0,1,0,-1,-2
1622149288597194,-1,-1,-2,0,-6,-2,-2,-3
1622149288597194,0,-1,1,1,0,1,-1,0
1622149288604279,-1,-2,-1,1,3,0,1,0
1622149288604279,-1,-2,-2,-4,-2,-4,-2,-2
1622149288611179,-1,-3,-3,-2,-1,-1,0,-2
1622149288611179,0,0,-1,0,1,1,-1,2
1622149288642900,-2,-1,-2,-2,-1,-1,-1,-2
1622149288642900,-1,-1,-2,-3,2,-2,-2,-2
1622149288644894,-2,-1,1,-1,-2,1,-1,0
1622149288644894,0,-1,0,0,-1,1,0,0
1622149288644894,-1,-2,-5,-3,1,-3,-1,-4
1622149288644894,0,0,0,-1,-4,0,0,2
1622149288649807,-2,0,1,0,3,0,-3,0
1622149288649807,-2,-2,-3,-3,0,-2,1,-2
1622149288664581,-1,-1,2,-1,-4,-3,-3,-2
1622149288664581,-1,-1,1,1,0,2,1,1
1622149288678924,1,0,-2,-2,-2,-1,0,-1
1622149288678924,-2,-1,-3,-3,6,-4,-2,-2
1622149288687145,-1,-1,1,-1,-3,2,-1,2
1622149288687145,-1,-2,-1,1,2,-1,-2,-1
1622149288693132,-1,-1,-2,-3,-4,-2,-3,-2
1622149288693132,0,-3,1,1,4,0,0,0
1622149288701456,-1,0,-1,-1,1,1,-1,2
1622149288701456,-2,-2,-1,-4,-7,-2,-2,-2
1622149288710163,0,-4,-1,-2,4,-1,-1,-1
1622149288710163,-2,1,-1,1,-6,0,-2,0
1622149288724553,0,-2,-4,-3,-2,-1,-2,-2
1622149288724553,2,-1,-1,-4,-12,-2,-1,-1
1622149288731313,-1,1,1,0,4,1,0,1
1622149288731313,-2,0,0,0,-1,-1,0,-1
1622149288746855,0,-2,-3,-2,-4,-3,-2,-3
1622149288746855,-1,0,-1,0,1,0,-1,-1
1622149288761949,0,-1,-1,-2,-2,0,0,1
1622149288761949,-1,-2,-1,-3,-1,-2,-1,-2
1622149288761949,-2,-1,-1,0,-3,0,0,1
1622149288761949,-1,-2,-1,1,5,0,-1,-1
1622149288769776,-2,-1,-2,-1,-5,-4,0,-2
1622149288769776,0,-1,-1,-2,-2,-3,0,-2
1622149288784717,1,0,1,-1,-1,1,1,0
1622149288784717,-1,-1,-2,0,2,-1,0,-1
1622149288798909,0,-2,0,-3,-4,-3,-3,-3
1622149288798909,-1,-1,-1,1,-1,1,-1,0
1622149288806984,-1,-1,0,-2,-2,0,-1,-2
1622149288806984,0,-1,-1,-2,1,-4,-3,-2
1622149288813871,-1,0,-1,1,5,1,-1,-1
1622149288813871,0,-1,1,-1,-5,2,0,1
1622149288821433,0,-1,0,1,2,-1,-1,-3
1622149288821433,-1,-3,-4,-2,-2,-2,-1,-3
1622149288837868,0,0,1,2,1,1,2,1
1622149288837868,-1,-2,-2,-1,0,-1,0,0
1622149288843873,0,0,-3,-2,0,-3,-1,-2
1622149288843873,-2,1,-1,0,4,1,1,-1
1622149288850861,-2,0,-1,0,-6,-1,0,1
1622149288850861,-1,-1,-4,-1,-1,-3,-2,-3
1622149288874858,-1,-1,-1,-1,-2,-1,-1,-2
1622149288874858,-2,-1,0,-1,-4,3,0,3
1622149288876885,-2,-1,-1,-2,-2,-1,-3,-2
1622149288876885,0,0,-3,-2,1,-3,-2,-3
1622149288889850,-1,-1,1,1,4,2,1,1
1622149288889850,-1,-1,0,-1,-2,-3,-1,-1
1622149288891820,0,-1,-4,-1,-15,-5,-3,-3
1622149288891820,-2,-2,-1,0,17,2,-1,0
1622149288919883,-2,0,1,0,-3,1,0,-1
1622149288919883,-2,-2,-3,-3,4,-1,1,-4
1622149288921099,0,-3,0,-1,1,-1,-2,0
1622149288921099,-2,0,2,0,-10,0,-1,-1
1622149288927180,-2,-1,-3,-2,-2,-4,-3,0
1622149288927180,0,-1,-3,-3,-1,-3,0,-2
1622149288933916,0,0,-1,0,7,0,0,1
1622149288933916,-1,0,0,-3,-1,-1,0,-3
1622149288958004,-2,-2,-4,0,2,-2,-1,-1
1622149288958004,0,-1,1,2,-4,0,-2,1
1622149288959003,-3,0,-1,0,5,1,0,-1
1622149288959003,0,-3,-2,-3,-4,-2,-2,-1
1622149288964719,-1,-1,0,0,-5,-1,0,-1
1622149288964719,1,1,1,-2,0,0,0,2
1622149288971406,0,-2,-3,-4,-2,-4,-1,-3
1622149288971406,0,-1,0,-3,-3,-3,-3,-3
1622149288994810,0,0,1,1,2,0,1,2
1622149288994810,0,-2,-1,-1,-1,-2,-2,-2
1622149288996834,0,-1,-2,-2,-3,-4,-1,-4
1622149288996834,0,-1,-2,0,-2,2,-1,1
1622149289009865,-1,-1,0,0,-1,0,-1,0
1622149289009865,0,-2,-2,-4,-1,-2,-2,-3
1622149289011767,-1,-2,0,-1,-2,-1,-2,1
1622149289011767,-1,0,2,1,1,0,1,0
1622149289024522,-1,0,-3,-4,-3,-1,-2,-4
1622149289024522,0,-2,-3,1,2,-2,-2,-2
1622149289046958,-1,-1,-1,1,-3,1,0,0
1622149289046958,-1,-3,-2,-1,-1,0,-1,0
1622149289047956,0,-1,-2,-2,2,-1,-1,-2
1622149289047956,-2,1,0,-1,-2,0,0,0
1622149289053887,-1,1,1,1,0,1,1,1
1622149289053887,-1,-2,-3,-2,-5,-4,-3,-1
1622149289069870,0,-1,0,0,3,0,-2,-1
1622149289069870,-1,-1,1,2,-1,1,-1,1
1622149289071110,-2,-1,-2,-3,5,-3,-2,-2
1622149289071110,0,0,-3,-5,-8,-3,-2,-2
1622149289083877,-2,-2,-1,0,-2,0,0,0
1622149289083877,-1,-1,-2,-2,2,-2,-2,-1
1622149289090943,0,-1,-1,-1,2,-2,-2,-3
1622149289090943,-1,-1,1,-1,-13,0,0,1
1622149289107117,-1,-1,-1,-2,-4,0,1,1
1622149289107117,0,0,-2,-1,7,-1,-2,-2
1622149289113960,0,-2,-1,-3,-10,2,0,0
1622149289113960,-1,-1,1,1,7,0,-1,-1
1622149289129861,-2,-2,-2,-2,-11,-5,-3,-3
1622149289129861,0,-1,-1,0,10,-2,-2,-3
1622149289131108,-1,2,1,2,-1,1,-1,0
1622149289131108,-3,-1,-1,-2,0,-2,-1,-1
1622149289151931,1,0,-2,-3,7,-2,-1,-2
1622149289151931,-1,0,-1,1,-3,3,1,1
1622149289153926,-2,-1,-1,-3,7,-4,1,-1
1622149289153926,0,-3,-3,-1,-4,-2,0,-2
1622149289167637,-1,-1,2,1,2,1,-1,0
1622149289167637,-2,-1,1,0,-5,1,0,2
1622149289173866,-1,-2,-1,-2,-10,-3,0,-3
1622149289173866,0,0,-1,-2,9,-1,0,-2
1622149289189846,0,0,0,0,-6,1,1,1
1622149289189846,-2,-2,1,-2,-3,-3,-1,-2
1622149289191870,-1,-2,-2,-2,0,-1,-2,-2
1622149289191870,-1,0,0,0,1,1,1,0
1622149289204664,-1,-1,-1,-2,3,-2,-1,-1
1622149289204664,-1,-2,-3,-3,-9,-5,-3,-3
1622149289210654,-1,-1,2,-1,-1,-1,-2,1
1622149289210654,-1,-1,1,1,2,1,1,1
1622149289227068,0,-2,-3,-4,-2,-2,0,-3
1622149289227068,-1,-1,-1,-3,-3,-3,0,-2
1622149289233889,-2,0,1,2,-3,2,0,2
1622149289233889,-1,-1,-2,-2,0,-1,-2,-3
1622149289257783,-1,-1,-2,-2,-3,-4,-2,-2
1622149289257783,-1,1,2,2,8,3,0,1
1622149289258997,-2,-2,-3,-2,-11,-4,0,0
1622149289258997,-2,-2,-2,-2,-10,-4,-1,-2
1622149289265274,-2,-1,-1,1,10,1,0,2
1622149289265274,-2,-2,0,1,-2,1,-1,-1
1622149289270982,-1,-2,-1,-1,3,-2,-1,-2
1622149289270982,-1,0,-1,0,5,0,-2,0
1622149289286938,0,-1,1,2,-10,0,0,0
1622149289286938,-1,0,0,-1,-4,-1,-1,0
1622149289293875,0,-2,-3,0,1,0,0,-3
1622149289293875,1,1,1,2,7,2,0,0
1622149289317806,-1,-1,0,-2,3,1,-1,-1
1622149289317806,1,-1,-2,-3,-9,-4,-3,-3
1622149289318711,-1,-1,-3,2,24,0,-1,-1
1622149289318711,0,0,0,-3,-52,-2,-2,0
1622149289324429,-2,-2,-3,-2,-2,-2,-2,-2
1622149289324429,-2,-2,0,0,3,-1,-1,-1
1622149289331457,-1,0,1,0,5,0,-1,1
1622149289331457,-2,-2,-3,0,-5,0,1,-2
