timestamp,emg1,emg2,emg3,emg4,emg5,emg6,emg7,emg8
1622149728158210,1,-12,3,4,19,-14,-53,-10
1622149728158210,-3,2,-7,-10,10,2,4,0
1622149728165261,-2,-6,-1,-13,-41,2,18,-9
1622149728165261,1,18,-1,10,14,3,-18,-12
1622149728188829,-1,-15,4,18,15,-9,16,39
1622149728188829,-3,1,2,10,-5,11,13,-8
1622149728189827,2,20,7,14,-11,-25,-14,-7
1622149728189827,8,-17,-1,-11,-9,1,-2,31
1622149728203808,-1,-1,-8,-17,19,32,4,-13
1622149728203808,-9,-15,-2,-2,-22,-13,-15,-7
1622149728204800,-1,-17,-4,5,6,20,20,8
1622149728204800,-3,30,2,-16,-10,-5,-6,-10
1622149728217875,4,7,6,19,15,1,-10,-3
1622149728217875,-1,-5,-5,11,-4,-1,-20,7
1622149728224950,-6,3,-6,-17,-3,9,-9,-39
1622149728224950,-6,-19,-2,0,9,22,17,-3
1622149728239803,2,10,3,15,6,-40,23,3
1622149728239803,-1,-19,-7,-22,-11,5,-39,0
1622149728248958,0,-3,-6,17,15,1,27,20
1622149728248958,10,36,5,-1,-4,-2,13,-4
1622149728263907,-1,-1,-3,-1,-6,-21,-10,-12
1622149728263907,-3,4,1,34,12,11,21,-4
1622149728263907,2,1,-1,-1,17,14,1,23
1622149728263907,-12,-25,-8,-28,-33,-27,-34,-2
1622149728278346,2,3,-3,9,-2,22,16,-1
1622149728278346,-6,-5,5,0,2,1,13,-1
1622149728285872,4,6,-9,-15,19,-25,-22,1
1622149728285872,-2,-3,0,11,-41,39,61,-7
1622149728299853,0,5,-4,-16,-11,-39,-54,-1
1622149728299853,-2,-22,1,1,-4,-17,-19,-1
1622149728308992,-2,20,3,1,-1,29,47,7
1622149728308992,-4,-49,-5,-20,12,2,-16,0
1622149728323870,5,60,1,-3,-13,-5,10,2
1622149728323870,-2,-12,-4,-15,21,3,5,-23
1622149728323870,-1,2,2,17,-15,-28,-41,32
1622149728323870,6,12,-2,11,-15,13,20,16
1622149728346468,-3,-17,-3,-8,20,4,14,-3
1622149728346468,8,-27,1,2,30,9,-3,23
1622149728346468,0,51,10,-8,-36,-10,-50,-31
1622149728346468,1,-2,-8,-12,5,-30,-3,-11
1622149728359860,-1,-16,-3,14,3,27,-15,4
1622149728359860,-5,7,-14,-52,-21,17,51,16
1622149728368462,-2,-28,1,48,24,-30,-37,-20
1622149728368462,-7,24,-3,-20,9,18,-13,-7
1622149728383551,1,-7,3,-2,-9,-1,8,-25
1622149728383551,9,16,8,-6,-7,16,-3,21
1622149728384458,-3,-21,-9,22,11,9,17,-4
1622149728384458,4,-3,6,-25,-9,17,6,-1
1622149728398334,0,-13,3,10,36,-19,14,15
1622149728398334,3,5,2,-3,-38,-13,-8,-13
1622149728405815,9,6,0,-4,5,12,1,14
1622149728405815,-15,-7,2,22,-5,-34,-77,-39
1622149728420793,-1,-25,-10,-7,0,1,49,14
1622149728420793,-5,9,2,-4,42,32,16,-5
1622149728428959,-7,-14,-4,-16,-70,-41,-6,-1
1622149728428959,2,1,-4,7,37,-25,1,8
1622149728443861,-9,-4,0,7,-37,10,-24,-11
1622149728443861,1,6,-1,-14,-1,-9,-18,-6
1622149728443861,-2,-9,-7,14,5,3,27,-3
1622149728443861,6,-8,5,26,23,24,8,8
1622149728457859,-3,0,-5,-10,-13,-24,-19,-1
1622149728457859,-1,-1,-5,11,-9,-11,5,1
1622149728465808,-11,-9,4,-16,3,13,6,-18
1622149728465808,11,38,1,-1,15,-16,-13,-3
1622149728480886,3,16,-2,-9,-19,26,21,10
1622149728480886,-8,-9,0,9,-21,-15,-26,-33
1622149728487979,3,-15,-1,8,24,-5,-23,11
1622149728487979,-13,7,1,-11,-37,-26,26,-1
1622149728503867,-2,-7,-8,-10,1,48,0,2
1622149728503867,2,1,-3,-3,6,-6,-2,-10
1622149728503867,2,17,11,-25,-29,-11,-31,-3
1622149728503867,-4,-20,-5,37,13,-13,33,8
1622149728517876,6,-4,0,-2,4,-6,-26,-9
1622149728517876,-19,2,1,13,-9,-20,8,6
1622149728525059,8,16,5,-14,15,36,6,6
1622149728525059,-3,-4,-2,-18,3,3,-33,-31
1622149728539809,-7,-21,0,-15,24,-18,13,-1
1622149728539809,14,11,-4,16,-34,4,7,-8
1622149728548966,-14,-6,-9,-11,7,-18,1,29
1622149728548966,3,7,1,6,46,41,42,11
1622149728563908,-1,1,2,6,-40,-26,-2,-1
1622149728563908,2,-9,-2,1,-5,-20,-15,6
1622149728563908,-4,-4,-4,-4,-4,18,17,-38
1622149728563908,3,-19,-2,2,-11,-26,-4,32
1622149728578230,-1,10,1,-9,26,12,-15,4
1622149728578230,3,-3,7,16,10,27,15,0
1622149728585221,10,11,-8,-16,-13,-3,26,6
1622149728585221,-12,-15,-1,4,-20,27,-23,4
1622149728600194,-1,-8,-1,-10,24,-9,-7,-37
1622149728600194,8,26,5,14,-2,-4,-5,8
1622149728608177,-6,-8,1,15,7,10,-1,-5
1622149728608177,0,0,-2,4,21,31,-2,1
1622149728623748,-1,7,-14,-47,-21,-8,15,5
1622149728623748,-2,-20,0,0,-23,-22,-17,-2
1622149728624763,2,16,-3,0,14,31,1,-14
1622149728624763,3,12,1,8,-23,-32,-15,3
1622149728637775,-8,-6,5,7,6,15,16,-2
1622149728637775,6,-3,-4,-2,38,-23,-9,-3
1622149728645753,-10,-23,-8,-23,-32,12,2,27
1622149728645753,0,-23,-6,-5,10,20,14,-9
1622149728660711,-5,35,-2,13,-10,-29,-42,-9
1622149728660711,-4,4,3,-12,6,22,37,9
1622149728668691,-1,-38,-9,2,16,0,-25,-5
1622149728668691,-2,27,4,-1,-14,-25,25,-7
1622149728683533,3,-7,-1,1,5,-3,-6,18
1622149728683533,-2,3,1,1,0,9,1,-5
1622149728685422,2,0,0,6,1,-31,-12,-15
1622149728685422,2,-1,-1,-5,-3,26,3,19
1622149728698344,7,14,4,10,-1,-12,29,6
1622149728698344,-3,-6,2,-8,-20,1,-35,-4
1622149728705561,9,20,1,-4,0,20,27,2
1622149728705561,-10,-20,-2,12,5,-17,-18,-14
1622149728720735,9,17,1,-12,10,-7,3,14
1622149728720735,-5,-17,-3,-9,4,-8,25,23
1622149728728906,-6,19,0,9,-19,-10,-12,-25
1622149728728906,4,-6,2,11,9,3,11,6
1622149728743848,-1,3,3,7,-24,12,-18,-4
1622149728743848,-1,1,-12,-14,15,5,25,-13
1622149728744820,-6,-31,0,-3,-12,-12,33,20
1622149728744820,6,38,6,-15,-18,0,-20,-1
1622149728757809,-2,-26,-3,26,10,7,-20,-4
1622149728757809,1,20,3,5,4,-3,28,3
1622149728765785,-1,-1,-4,-27,-3,-14,5,-11
1622149728765785,-8,-17,8,22,-32,38,-18,-12
1622149728780854,-6,5,-3,-26,-11,-16,25,8
1622149728780854,3,-9,-2,7,19,-2,-11,-7
1622149728788855,2,9,8,1,4,0,-53,-24
1622149728788855,-3,-13,-15,-26,-9,4,6,8
1622149728803046,3,3,1,14,18,20,32,2
1622149728803046,-10,-9,4,6,-21,-57,-54,-6
1622149728811511,3,-10,-5,-2,-12,6,53,-13
1622149728811511,3,-7,-2,17,13,-10,0,-1
1622149728817377,-2,12,-1,-25,-8,23,-11,-4
1622149728817377,-3,6,1,4,24,-16,18,7
1622149728825788,-1,-12,3,9,2,-20,-25,5
1622149728825788,-1,14,5,-2,-14,3,-11,-11
1622149728840780,2,-28,-4,10,16,13,30,4
1622149728840780,-4,25,6,-3,-42,6,4,3
1622149728848782,0,6,-1,-13,-7,-24,-18,4
1622149728848782,0,-7,-1,-5,19,3,8,1
1622149728862743,-4,-3,-8,-11,-4,-11,-3,14
1622149728862743,4,-13,-3,2,20,30,10,2
1622149728870722,5,18,7,21,13,17,33,13
1622149728870722,-2,-6,-1,-8,0,-22,-3,0
1622149728877710,1,-7,-1,5,-5,-9,-17,6
1622149728877710,-1,4,-4,-9,-14,23,-4,-9
1622149728885658,2,-3,-1,9,13,-5,-1,13
1622149728885658,-12,-4,-2,-20,-7,-14,2,-4
1622149728900815,8,-17,8,-14,-1,-5,-14,-19
1622149728900815,10,7,-7,11,25,42,-8,6
1622149728908838,-8,-9,2,-3,-50,-19,3,1
1622149728908838,3,12,3,0,7,-13,13,-1
1622149728922811,-11,-16,-9,-4,-20,-2,-5,-12
1622149728922811,-6,-22,-4,-3,4,-1,2,-4
1622149728931435,-3,-2,-5,0,6,15,-22,-41
1622149728931435,-3,-14,-9,-13,11,-33,8,31
1622149728946309,-1,28,6,31,-6,-13,3,-2
1622149728946309,11,-3,-1,-8,-16,-1,-21,8
1622149728947307,-4,-2,-4,8,25,-13,21,-3
1622149728947307,0,-6,4,2,-19,16,1,-4
1622149728960292,0,2,-12,-29,6,-13,-37,-12
1622149728960292,-5,-8,-8,-18,-14,-5,15,-1
1622149728968251,-3,4,-1,-9,-16,8,-8,-1
1622149728968251,-5,-9,0,8,15,-30,-16,6
1622149728983212,5,19,-1,14,-10,32,34,8
1622149728983212,-10,-27,-8,-14,18,10,-32,-8
1622149728991214,1,9,0,-7,-22,-36,-22,1
1622149728991214,-2,-9,-4,-8,7,3,11,-29
1622149729006429,0,-6,1,12,-6,2,5,20
1622149729006429,0,-4,4,6,-2,-17,-8,-1
1622149729006429,-1,-3,-1,3,22,19,4,6
1622149729006429,3,11,-4,-11,-12,11,-10,-2
1622149729020861,-5,-9,6,19,36,-12,-8,-9
1622149729020861,0,10,1,-3,-44,-2,0,-3
1622149729028955,1,6,8,3,23,10,4,12
1622149729028955,9,16,1,-9,-3,30,-4,-1
1622149729042843,-3,-8,-3,-23,-9,-52,-2,-3
1622149729042843,-10,-12,3,19,16,2,3,42
1622149729050793,-5,4,-4,-16,36,10,22,-15
1622149729050793,1,7,-3,11,-59,26,-56,-5
1622149729065750,2,-21,5,7,7,-18,-6,-27
1622149729065750,10,43,5,8,-11,4,57,30
1622149729066748,-5,-29,-5,6,7,-22,-22,0
1622149729066748,9,-3,-8,-12,11,6,-18,29
1622149729080843,3,5,1,-9,-6,22,25,-6
1622149729080843,-17,-19,-3,11,1,-27,-46,-21
1622149729088851,-4,-7,-4,-4,-36,39,34,2
1622149729088851,-4,-6,10,27,12,-11,-7,-16
1622149729102868,-3,-5,-7,-4,-1,1,-13,1
1622149729102868,2,-8,-1,-11,1,-11,0,-5
1622149729111532,0,11,2,19,5,18,-12,5
1622149729111532,-8,-20,-8,-20,15,-4,45,-5
1622149729126484,5,22,-2,-19,-33,21,5,2
1622149729126484,1,-11,-5,-7,17,11,-5,11
1622149729126484,-4,7,8,3,0,-37,-20,-8
1622149729126484,-8,0,-4,5,7,10,-4,-15
1622149729141831,-5,-15,-2,8,6,26,35,30
1622149729141831,17,18,2,-13,-4,-31,-29,-17
1622149729148811,-4,-4,-1,5,-8,41,17,16
1622149729148811,1,0,0,-11,16,-71,-14,7
1622149729162773,-11,-15,1,-5,-7,16,-41,-23
1622149729162773,2,41,2,28,0,15,33,-5
1622149729170753,6,-12,4,-6,15,-17,-29,7
1622149729170753,0,-10,2,8,-12,25,23,4
1622149729186710,2,20,-6,-19,20,-19,-1,-23
1622149729186710,-3,-17,-6,2,-30,-18,-26,-9
1622149729187745,-8,16,0,4,0,-3,7,1
1622149729187745,-6,-5,0,2,-8,-13,0,15
1622149729200673,9,-7,2,14,-9,-10,6,15
1622149729200673,-6,-19,0,-20,20,28,-20,-4
1622149729207654,4,11,2,1,-15,-20,18,-9
1622149729207654,-4,-19,-5,16,16,-13,1,-5
1622149729222638,1,16,-2,-24,-15,4,2,7
1622149729222638,-6,-3,-3,7,19,1,-17,-29
1622149729230592,2,-14,-9,-6,-3,11,-7,-1
1622149729230592,5,9,-3,-15,-14,-10,21,44
1622149729245553,-2,-10,19,41,32,-25,0,-10
1622149729245553,-2,-1,-2,-20,-31,55,-17,-14
1622149729246550,8,2,1,15,8,-17,-28,2
1622149729246550,-13,5,-9,-37,-5,-4,53,-8
1622149729260541,-8,34,-3,7,-10,-11,-26,-7
1622149729260541,-2,-23,3,23,28,-4,38,9
1622149729267495,1,-7,-4,6,3,-6,-9,-2
1622149729267495,4,-5,-12,-21,12,45,-9,-19
1622149729282478,-8,1,-4,4,-30,-33,-21,7
1622149729282478,-6,-19,5,9,9,-5,16,-7
1622149729291431,5,46,-4,-10,-19,-23,-1,9
1622149729291431,7,-21,0,-15,8,20,-9,-15
1622149729306420,-11,11,0,16,36,-10,3,23
1622149729306420,2,10,-5,-33,-29,14,16,-24
1622149729306420,-6,-17,-2,18,1,-28,-9,-9
1622149729306420,-1,-2,-4,-3,9,11,0,24
1622149729320353,2,-43,-1,2,-43,18,0,-3
1622149729320353,1,52,7,-6,11,1,5,14
1622149729328105,1,-9,-1,-11,0,-21,-12,-3
1622149729328105,-2,2,5,14,3,-48,-23,-26
1622149729343067,1,-16,-7,-5,-25,33,-4,-3
1622149729343067,-2,6,-2,-3,9,-18,48,21
1622149729351047,1,-10,-12,-25,-53,-12,-54,-19
1622149729351047,4,15,7,18,35,15,-3,4
1622149729365901,-1,5,-6,-8,11,-2,14,-8
1622149729365901,5,-30,3,-4,2,-10,-13,23
1622149729366875,2,28,3,-4,21,43,50,0
1622149729366875,7,8,2,17,-22,-41,-38,-6
1622149729380312,1,1,2,-12,-6,1,14,-38
1622149729380312,-13,-13,-11,-18,5,-3,-19,26
1622149729387851,-7,-43,0,-2,12,13,40,8
1622149729387851,1,52,3,20,-10,4,-18,-9
1622149729402862,-1,-34,-10,-10,23,47,13,-5
1622149729402862,3,-2,11,13,-31,-13,-14,-6
1622149729411453,-10,-9,-6,-16,4,8,-13,-5
1622149729411453,-6,-4,2,17,-10,-5,12,-14
1622149729426428,5,10,7,6,18,9,12,33
1622149729426428,-3,-12,-18,-11,-56,0,-5,-11
1622149729426428,0,-12,-6,-15,8,19,10,8
1622149729426428,-4,-4,4,2,10,-13,7,-16
1622149729440318,1,3,0,-8,-20,-33,-6,19
1622149729440318,-2,6,-3,3,22,51,-35,-17
1622149729448296,8,10,6,-8,1,-14,23,-24
1622149729448296,0,-16,-8,18,5,13,22,21
1622149729463287,2,11,2,-25,-8,10,23,6
1622149729463287,3,-6,3,10,15,-45,-34,-11
1622149729471330,3,24,-5,-10,-9,39,-13,-2
1622149729471330,-6,-22,2,12,26,30,-8,-9
1622149729486835,7,38,14,24,-7,-13,-20,0
1622149729486835,-6,-4,0,5,-2,10,31,9
1622149729486835,-1,-4,-8,-14,-3,-18,-29,-4
1622149729486835,-3,-4,-5,-24,-9,-9,5,5
1622149729499872,0,-8,-6,-5,20,11,12,0
1622149729499872,4,-2,6,26,9,-36,-16,-3
1622149729507949,-7,-7,3,27,3,7,-5,5
1622149729507949,0,12,-5,-29,-33,-5,11,-1
1622149729523357,-9,-6,-5,11,-10,31,-55,-56
1622149729523357,16,22,3,7,37,16,26,0
1622149729531500,-20,-16,-5,-9,2,15,26,30
1622149729531500,15,-28,-3,-1,7,11,-21,4
1622149729546356,-7,31,6,0,-21,-56,19,14
1622149729546356,0,1,-6,-30,18,-10,-26,-19
1622149729546356,9,8,4,33,13,6,10,3
1622149729546356,-3,-30,4,3,-12,5,-6,0
1622149729560902,-2,-2,-9,-12,6,-12,1,13
1622149729560902,0,-3,5,8,0,17,37,0
1622149729567891,-5,-5,-5,-14,-20,-51,-50,0
1622149729567891,-6,-17,-1,12,-5,-21,29,-2
1622149729582968,5,6,-1,9,-13,20,-17,0
1622149729582968,-16,8,-23,-29,-11,3,3,-14
1622149729590878,7,-3,6,1,16,3,10,28
1622149729590878,2,28,2,2,-38,-27,15,1
1622149729606514,-5,-26,6,12,9,17,3,-3
1622149729606514,13,4,4,13,-8,-12,-5,6
1622149729606514,-5,18,-2,-30,-2,-21,-29,-13
1622149729606514,-2,1,1,-15,-2,0,4,1
1622149729620000,0,-18,-8,22,5,-13,-1,6
1622149729620000,-6,-19,4,7,-17,11,-23,-14
1622149729628255,0,-7,3,4,-21,-20,30,-17
1622149729628255,6,31,-5,-12,33,-3,-2,-2
1622149729643354,-15,-20,5,-12,-17,-8,0,-8
1622149729643354,6,16,5,40,21,-3,20,3
1622149729651315,1,-11,-3,-33,26,-6,-37,6
1622149729651315,-2,7,0,5,-30,16,-21,-16
1622149729666300,2,-23,-2,-4,30,6,-11,-15
1622149729666300,-2,16,0,1,-33,-18,12,19
1622149729666300,2,-2,-5,11,11,12,20,-14
1622149729666300,-3,3,10,-7,5,7,-1,27
1622149729680801,5,2,-8,-22,0,-13,-4,3
1622149729680801,2,-3,5,14,-1,7,16,4
1622149729687801,6,11,-7,13,-3,-4,8,-2
1622149729687801,-9,-21,-6,-16,-15,12,-18,-11
1622149729702739,-2,6,-3,-4,-26,-19,-5,-3
1622149729702739,3,16,-2,-16,-22,0,-1,2
1622149729711853,-5,-4,3,1,16,-5,3,-2
1622149729711853,1,-1,-7,-2,-15,12,3,15
1622149729724842,3,-19,-3,17,21,-1,-14,21
1622149729724842,-11,23,-5,-21,21,-4,-20,-48
1622149729733810,4,1,-3,14,-48,-4,-18,13
1622149729733810,0,3,8,-2,15,11,-7,-34
1622149729739819,8,4,-5,-15,13,8,23,26
1622149729739819,-9,-28,-5,11,-2,-16,21,3
1622149729747773,-2,6,2,7,12,26,-6,-3
1622149729747773,2,4,-8,-8,-3,12,13,7
1622149729762762,-10,-6,1,13,16,-9,11,-10
1622149729762762,0,-11,-2,-29,-6,-13,-19,14
1622149729770674,-3,9,6,13,-6,2,18,-4
1622149729770674,6,14,2,10,-15,-14,0,16
1622149729785825,-1,4,-3,-3,1,5,-41,-22
1622149729785825,-9,-10,0,-15,12,4,42,8
1622149729793825,3,-14,1,11,-5,-23,-18,-21
1622149729793825,-5,-8,-17,-24,12,-5,-23,-9
1622149729800784,-2,14,3,22,-6,5,21,-3
1622149729800784,1,2,-1,6,11,-12,-36,-4
1622149729808391,4,-10,-2,-12,-10,7,26,-3
1622149729808391,-3,1,3,19,6,-6,-17,20
1622149729823071,6,-7,-3,-25,0,-6,13,-2
1622149729823071,-4,-18,-8,12,-6,-1,-15,-2
1622149729831519,-8,13,1,-11,-2,-33,-33,9
1622149729831519,3,-10,1,8,-8,35,71,-5
1622149729845353,0,38,-2,-1,21,-14,-15,-15
1622149729845353,1,-19,-2,-10,-33,18,22,41
1622149729853308,-3,-8,-7,1,28,1,-22,-8
1622149729853308,3,1,0,-13,-22,6,-9,0
1622149729860529,-2,-9,10,13,1,-21,19,2
1622149729860529,4,10,-3,1,8,13,-4,-2
1622149729867336,-1,-4,-4,-9,-14,24,-20,3
1622149729867336,-3,0,5,-8,-1,-7,14,-6
1622149729882389,0,0,-2,15,10,21,1,-1
1622149729882389,-6,0,-3,1,11,-2,-10,-9
1622149729891396,13,-12,12,14,4,10,2,12
1622149729891396,-8,15,2,8,17,-12,-15,-18
1622149729905421,-7,-15,-15,-28,-40,-7,14,-1
1622149729905421,4,20,14,11,21,-16,-22,-3
1622149729913920,6,-10,-8,-20,-26,29,16,9
1622149729913920,-8,-10,-1,7,6,-14,-2,-1
1622149729928830,-5,0,8,21,12,16,10,-1
1622149729928830,3,14,-10,-8,9,-12,-19,-7
1622149729929775,-1,-6,-4,3,0,-5,26,-3
1622149729929775,2,7,6,6,17,19,-38,-3
1622149729942376,0,-13,-3,-2,13,8,41,9
1622149729942376,-1,-8,0,-2,-56,12,4,-2
1622149729951344,-12,2,-1,-13,0,-16,-37,-17
1622149729951344,1,5,-7,7,-4,-3,7,8
1622149729965854,-1,18,8,1,-11,4,3,1
1622149729965854,-1,-32,-1,6,5,-2,-7,-9
1622149729973957,3,44,8,-14,-5,-4,10,-19
1622149729973957,5,-15,-5,-22,0,-9,-3,10
1622149729988781,5,-1,-3,-5,1,-8,-1,14
1622149729988781,-8,-5,0,-3,-5,10,4,-6
1622149729989778,2,-14,3,26,13,22,9,19
1622149729989778,4,7,6,-17,6,-12,-10,-19
1622149730002872,-5,-8,0,17,0,1,-40,-8
1622149730002872,0,-1,7,-7,1,6,9,-2
1622149730011533,-4,10,-4,-9,3,25,-4,-4
1622149730011533,10,23,-1,-4,-7,-10,20,15
1622149730025887,-7,-23,-3,-5,5,-5,-15,-11
1622149730025887,-11,1,-4,10,-2,-4,1,-2
1622149730033019,0,-5,1,-3,6,-21,28,9
1622149730033019,-9,-11,5,41,7,5,-2,-18
1622149730048977,6,-6,-7,-31,-20,-35,-40,-3
1622149730048977,-4,-11,-17,-33,8,1,32,3
1622149730048977,-2,13,0,25,12,-13,-7,-19
1622149730048977,2,-1,-1,-2,-51,-5,-1,-7
1622149730063424,-3,-14,-2,-1,8,8,17,26
1622149730063424,-6,-4,-8,-17,-11,-4,-20,3
1622149730071522,-6,-22,-6,-5,25,-35,-10,-13
1622149730071522,4,19,7,32,4,16,18,15
1622149730086186,-2,15,-1,-16,-14,-7,-25,-24
1622149730086186,-3,-15,-6,11,-32,17,10,2
1622149730093167,3,-6,-1,-19,-15,11,13,-9
1622149730093167,-7,-35,-2,3,34,-20,-9,-5
1622149730108124,12,30,1,-16,-21,5,-14,29
1622149730108124,2,14,5,17,22,4,20,-23
1622149730109122,-7,-18,-5,-1,-46,-19,-44,5
1622149730109122,-3,-24,-15,-26,29,-1,19,-3
1622149730123383,3,16,4,-8,-17,6,8,0
1622149730123383,-1,-5,6,18,8,-11,-7,15
1622149730131533,-2,2,-1,-1,10,12,20,6
1622149730131533,-5,-9,-4,-31,-26,-19,-35,30
1622149730145896,7,16,-2,21,14,2,1,-5
1622149730145896,3,3,-3,-23,2,-19,-1,-6
1622149730153988,-3,-4,8,42,16,-7,17,3
1622149730153988,-1,1,1,-16,-33,40,-11,-7
1622149730169209,-12,-7,-12,-30,18,2,9,-10
1622149730169209,1,2,4,34,5,-14,-30,-6
1622149730176166,-4,5,-6,-24,13,8,30,10
1622149730176166,3,-3,2,-2,-7,-2,-46,-43
1622149730182442,-3,2,-1,17,-2,-5,1,1
1622149730182442,-2,-20,-5,-14,1,7,10,-3
1622149730191442,-2,0,-2,2,3,-6,-36,8
1622149730191442,-1,-3,0,8,2,7,51,6
1622149730204793,-6,-8,0,19,6,7,9,-16
1622149730204793,0,17,-1,-36,-4,-7,-35,6
1622149730214024,6,-1,4,27,-1,18,5,-13
1622149730214024,-8,4,-4,-24,4,-39,-10,1
1622149730229060,2,-11,-4,4,-26,-9,0,18
1622149730229060,-1,-17,2,4,39,26,23,18
1622149730229878,-1,10,-3,-15,5,-2,4,1
1622149730229878,-2,17,6,38,11,3,-5,15
1622149730242446,-2,-4,-2,-12,5,-10,-15,-17
1622149730242446,3,10,1,-2,-3,-18,50,8
1622149730250909,1,-9,-8,-3,-24,3,18,9
1622149730250909,-6,0,4,8,3,10,-32,-2
1622149730265822,9,4,2,-18,6,5,21,5
1622149730265822,-4,4,0,12,-19,7,-5,-11
1622149730273804,9,10,13,29,-5,8,-26,-2
1622149730273804,-2,-5,-12,-1,24,-14,4,-3
1622149730288820,-9,-17,-9,-10,-53,2,-7,3
1622149730288820,10,-7,2,-2,-13,-17,-27,-2
1622149730289784,-8,-7,-1,-15,31,-15,8,-22
1622149730289784,1,16,5,3,-23,-6,-18,-2
1622149730302748,-2,-4,0,10,29,-18,-13,-9
1622149730302748,-6,-49,-14,-22,5,5,6,-3
1622149730310725,5,46,2,-6,-3,7,24,6
1622149730310725,3,-5,2,-1,24,-21,-41,-8
1622149730325825,-5,-20,-6,7,-9,18,27,-3
1622149730325825,0,32,9,-5,-34,-13,-62,-13
1622149730333788,-6,-27,-8,-14,26,34,61,7
1622149730333788,-1,1,7,4,-21,-11,-3,-16
1622149730348789,-1,-12,-6,-16,0,33,19,6
1622149730348789,1,23,2,14,3,-12,-9,33
1622149730349755,-11,-14,-8,-15,-19,-11,-35,-21
1622149730349755,2,19,1,-14,-2,-10,6,1
1622149730362750,4,-4,8,36,-5,-20,-7,1
1622149730362750,-13,-20,-3,5,-5,30,48,-9
1622149730370697,19,27,-3,-16,2,-8,-12,23
1622149730370697,-20,-11,-9,-6,-14,8,17,-2
1622149730385815,-6,2,4,-17,-2,-16,14,-12
1622149730385815,3,8,4,-6,-19,-78,-57,-23
1622149730393814,1,-18,-3,18,-5,46,8,7
1622149730393814,1,-5,-6,9,8,39,10,-11
1622149730408821,1,14,11,-2,59,13,35,24
1622149730408821,5,-14,-10,-17,-35,-1,-27,-7
1622149730409777,-11,2,4,7,15,-14,-22,-17
1622149730409777,4,5,-3,8,-6,-19,8,-5
1622149730422876,4,3,-16,-32,-29,38,17,-4
1622149730422876,-4,-7,8,29,40,-1,15,1
1622149730431536,5,9,-3,-14,-37,-15,-28,5
1622149730431536,-1,1,7,10,47,11,7,4
1622149730445325,1,8,3,17,-39,-7,-31,-25
1622149730445325,-3,-1,-5,-10,12,36,5,9
1622149730453302,2,-10,2,-15,-8,-42,23,4
1622149730453302,2,-36,-9,9,-2,3,5,3
1622149730468829,3,25,0,-21,7,30,3,0
1622149730468829,-4,26,2,2,16,11,15,-7
1622149730468829,-9,-15,-2,-7,-23,-25,-25,-3
1622149730468829,6,-8,-3,-12,-12,27,17,14
1622149730483310,-15,-27,-5,1,1,-46,-20,-35
1622149730483310,13,45,3,-2,1,11,-13,6
1622149730490807,0,1,0,16,16,0,9,14
1622149730490807,5,4,-2,-3,3,29,-18,-3
1622149730505774,-13,-13,-4,-10,-6,-10,26,-5
1622149730505774,3,-3,-5,13,10,-17,11,-5
1622149730514093,0,-12,-4,-11,-16,-14,-37,3
1622149730514093,-4,-1,7,16,8,-12,57,5
1622149730528839,4,16,2,-11,-10,-15,-75,-5
1622149730528839,1,-12,3,16,-1,9,66,-22
1622149730529774,-5,6,-1,-7,10,1,7,18
1622149730529774,-1,-16,-14,-33,-25,-18,-33,-22
1622149730542400,2,-3,4,21,17,-7,0,9
1622149730542400,-3,54,8,-5,3,3,-32,-39
1622149730549871,6,-7,-6,13,-21,-29,5,20
1622149730549871,-3,0,-5,-3,-4,6,2,4
1622149730565886,2,-14,0,6,1,4,-9,5
1622149730565886,-3,-7,-4,-3,32,-25,-21,-1
1622149730573959,-3,-10,-6,-7,-55,19,20,-13
1622149730573959,3,11,10,4,3,-5,-34,-2
1622149730588807,6,12,-3,-7,26,-3,15,18
1622149730588807,-7,-18,-1,-2,-12,12,-16,7
1622149730589803,5,-6,-2,-5,24,53,-5,-12
1622149730589803,-8,8,3,20,-10,-38,60,-4
1622149730602866,1,-16,0,9,15,23,-24,4
1622149730602866,3,1,-8,-21,8,-14,-7,-4
1622149730610901,-11,-13,-1,19,-14,-4,-34,-11
1622149730610901,-7,-4,-4,-17,11,17,33,20
1622149730625872,-1,14,2,15,22,-9,24,9
1622149730625872,2,-28,0,10,-38,8,-3,-7
1622149730633792,4,52,5,-11,28,-8,-4,4
1622149730633792,-1,-5,-5,-11,-6,-18,-47,-9
1622149730648853,-2,-1,-1,0,1,-2,41,32
1622149730648853,-4,-19,-6,-10,-35,17,6,2
1622149730649766,1,2,4,12,23,-17,8,-10
1622149730649766,2,4,-1,5,14,35,8,3
1622149730663306,-1,12,-5,-5,6,7,12,-13
1622149730663306,-5,-11,-11,-2,9,-24,-17,8
1622149730670904,-1,-9,12,6,1,17,26,5
1622149730670904,-4,-2,-2,-12,-8,-24,24,-2
1622149730686347,0,3,-1,-3,13,0,-23,-8
1622149730686347,4,10,3,14,-23,39,29,11
1622149730693331,1,-9,-2,-5,10,-59,-51,-6
1622149730693331,-10,10,1,26,-13,8,27,2
1622149730708312,4,-9,5,6,0,14,-7,10
1622149730708312,-7,-13,-3,-19,25,-12,11,3
1622149730716532,-2,0,-5,8,-18,5,25,-7
1622149730716532,7,-1,0,-11,-8,-2,-37,-7
1622149730723279,-1,1,-2,11,-15,-5,-13,-8
1622149730723279,7,8,4,0,-6,-6,-3,4
1622149730730928,-2,-29,-4,7,42,38,4,-12
1622149730730928,-15,3,5,3,-26,-67,-11,10
1622149730745903,7,3,-2,-39,-27,31,-25,-33
1622149730745903,-2,-1,2,44,27,-5,-9,-8
1622149730753984,3,-9,-8,-1,-13,8,19,0
1622149730753984,2,8,7,1,-19,2,-4,1
1622149730767903,-5,14,-10,-32,-21,-17,1,-5
1622149730767903,-2,-20,-2,-7,11,-26,-31,23
1622149730776595,-8,2,-3,-12,-18,17,30,-10
1622149730776595,1,-5,-7,-6,-5,2,8,-26
1622149730782420,5,-22,3,20,-19,-11,-18,14
1622149730782420,-9,4,-6,-17,13,20,30,-2
1622149730790425,-4,5,-1,-12,-10,-48,-45,7
1622149730790425,-6,-8,-6,-2,14,39,13,1
1622149730805825,8,-34,3,24,37,22,11,0
1622149730805825,-2,46,5,4,-21,-1,8,-31
1622149730813812,-2,15,-2,-20,-10,-3,-7,-8
1622149730813812,7,-1,-8,-3,20,-16,-19,0
1622149730828306,-5,-1,2,0,16,1,-23,-6
1622149730828306,-6,-15,3,-5,-11,19,4,3
1622149730836200,-3,-8,0,20,-1,-1,12,7
1622149730836200,7,2,-5,5,26,21,-14,-4
1622149730851158,-7,5,-8,-10,-1,-6,8,6
1622149730851158,0,-27,-2,4,-22,-1,2,41
1622149730852155,3,36,0,-19,33,-34,-6,-6
1622149730852155,5,-8,-2,-4,-35,6,14,6
1622149730865149,-5,6,-1,-9,-16,-26,-32,5
1622149730865149,-2,-20,-4,10,8,2,24,-9
1622149730873097,-4,1,-1,18,10,0,-19,-25
1622149730873097,2,-21,-11,-16,-48,-8,9,11
1622149730888104,-1,31,6,0,6,-9,-4,-18
1622149730888104,5,7,5,0,3,-5,1,1
1622149730896622,1,-21,-5,4,-3,-3,5,9
1622149730896622,-3,16,1,-6,22,-6,-48,-22
1622149730911094,-4,-24,-3,8,-24,-16,64,8
1622149730911094,12,20,-3,-6,3,21,-12,1
1622149730912093,-1,-13,8,9,23,2,9,16
1622149730912093,-2,17,-5,9,2,5,-7,-4
1622149730925879,-3,-23,-3,-5,11,36,-13,4
1622149730925879,4,2,-2,-15,10,-24,7,-2
1622149730933436,-1,-9,0,-11,-33,1,8,7
1622149730933436,8,-7,12,-3,39,-8,-4,13
1622149730948450,-14,10,-11,9,-33,-25,-12,-16
1622149730948450,-3,-17,4,-8,10,-6,-12,-7
1622149730963909,0,6,4,-2,-16,6,21,-7
1622149730963909,1,1,-1,-13,23,-9,-19,-3
1622149730971557,1,4,-1,22,-9,-7,-24,9
1622149730971557,-2,-15,-6,-20,36,-9,58,-1
1622149730972395,-16,-7,-1,11,-1,-9,-14,7
1622149730972395,7,-4,-9,-36,-8,24,6,-12
1622149730985815,5,14,2,-1,-4,-25,2,-17
1622149730985815,-4,29,3,12,-5,11,-22,7
1622149730993767,5,-16,-3,-33,-10,22,8,8
1622149730993767,-5,-15,-2,0,-26,-5,16,7
1622149731008346,-3,2,0,-1,11,10,-2,-5
1622149731008346,-3,-6,3,1,-3,-29,-18,-8
1622149731016431,-3,7,-2,1,-33,18,-20,0
1622149731016431,-5,-8,-2,10,14,3,16,4
1622149731031286,2,-16,4,-14,-17,-13,-20,-19
1622149731031286,8,32,0,7,-27,16,24,18
1622149731032284,1,8,2,-28,27,-25,-27,-1
1622149731032284,-4,2,2,31,25,-25,-6,-9
1622149731045273,7,-19,-3,2,-31,18,16,6
1622149731045273,-14,-3,-3,5,28,7,-6,-7
1622149731053437,-2,-3,-9,-6,-15,-15,-8,7
1622149731053437,0,9,13,0,3,18,11,-38
1622149731068357,-2,-6,-2,3,7,-17,10,39
1622149731068357,-1,12,1,3,1,-10,-21,-6
1622149731076366,6,-8,0,10,-9,36,12,0
1622149731076366,-16,2,2,-6,6,-50,-2,-6
1622149731090771,-2,-35,-8,-24,13,9,46,-10
1622149731090771,3,41,7,15,-8,17,-8,-4
1622149731091741,-2,-1,-2,-5,-4,6,-7,-2
1622149731091741,0,6,1,11,2,3,4,2
1622149731105856,-5,-5,10,-3,26,6,-13,-2
1622149731105856,-1,-30,-9,15,-29,-3,7,3
1622149731114002,-2,12,7,-5,27,0,12,-19
1622149731114002,1,-2,-5,10,-7,26,-46,11
1622149731128781,0,10,-10,-12,-11,-35,37,-20
1622149731128781,1,-20,9,8,7,21,2,-3
1622149731135804,-3,-6,-12,0,9,-17,-32,-4
1622149731135804,5,2,4,2,-22,30,-6,-7
1622149731150762,-8,-1,-4,5,14,4,32,40
1622149731150762,-7,-6,-5,-7,4,-16,-24,-7
1622149731151759,-3,2,-5,0,-50,-5,-2,-11
1622149731151759,6,-14,-1,1,6,-4,29,15
1622149731165737,0,7,-6,-3,7,-5,-45,2
1622149731165737,-4,4,-12,-21,-35,-18,-8,-7
1622149731173727,0,0,16,26,32,21,23,19
1622149731173727,-1,0,17,21,24,1,-4,16
1622149731187659,1,8,1,-10,-21,13,-33,-8
1622149731187659,2,-18,-9,-5,-17,-11,16,-12
1622149731195660,-3,-3,-7,2,-6,-30,-24,-36
1622149731195660,2,-6,-15,-28,-4,17,53,36
1622149731211558,0,10,7,11,-7,-8,-23,-9
1622149731211558,4,-12,4,-10,13,13,18,5
1622149731212399,-7,-22,-5,0,1,27,17,-21
1622149731212399,-16,2,0,4,1,-33,-69,25
1622149731225843,10,64,3,-1,28,11,66,1
1622149731225843,0,-13,-27,-28,-46,-18,0,-15
1622149731233794,-1,3,26,8,17,19,25,20
1622149731233794,1,-18,-8,-27,-23,-19,-4,-18
1622149731247766,-7,-7,-6,32,42,7,-26,-10
1622149731247766,-1,4,0,-4,-17,-4,-17,-4
1622149731255770,6,-4,-11,-4,10,1,7,22
1622149731255770,-2,7,14,4,-28,-52,-21,-15
1622149731271541,1,-8,-7,-17,-3,29,8,3
1622149731271541,0,-24,-2,-4,9,31,-12,-6
1622149731272377,-9,-10,0,8,6,-31,-28,-1
1622149731272377,1,11,-3,11,21,9,17,-7
1622149731285489,7,44,5,-1,-25,-17,10,-10
1622149731285489,-5,-7,-1,-17,4,-52,-8,6
1622149731294088,1,-1,0,-7,-3,26,1,-6
1622149731294088,-3,-12,-5,8,-28,14,-22,-6
1622149731308479,-3,-22,-2,-9,14,-20,33,3
1622149731308479,0,5,-9,3,-12,-13,-17,0
1622149731315888,5,13,4,-1,6,-9,-11,5
1622149731315888,0,-3,1,-14,-7,11,32,-21
1622149731330959,4,-24,3,9,-10,4,-41,16
1622149731330959,-3,34,2,11,34,-7,-3,0
1622149731331868,-6,-22,-13,-6,-23,-7,17,-10
1622149731331868,7,5,9,-4,1,16,8,7
1622149731345881,-8,-25,-6,-21,-7,-17,-23,-18
1622149731345881,-1,16,0,12,21,31,18,42
1622149731353325,13,8,0,3,-21,-8,20,4
1622149731353325,-4,-4,-6,1,17,13,-14,-8
1622149731368409,-9,-2,5,1,9,4,-1,3
1622149731368409,0,-40,9,7,-23,-2,31,-8
1622149731376618,-1,40,-4,-8,14,8,-8,-6
1622149731376618,1,1,-4,-5,3,-28,6,13
1622149731390798,-1,-2,-11,3,0,36,16,12
1622149731390798,2,-3,6,3,14,8,-41,-3
1622149731391769,2,-10,0,-6,-6,-8,3,4
1622149731391769,1,-5,-7,-2,43,7,16,-1
1622149731405893,-8,5,2,9,-60,-13,-17,2
1622149731405893,-15,-14,-4,-16,-5,-12,-32,-52
1622149731414116,1,22,0,10,29,-18,11,17
1622149731414116,4,13,-5,-22,-52,4,-18,-4
1622149731428178,-3,-19,0,-7,45,11,7,-6
1622149731428178,3,11,3,4,-42,-33,-5,8
1622149731436217,-9,-21,-4,-7,-17,21,-23,-10
1622149731436217,1,4,-5,10,23,14,24,6
1622149731451200,2,-13,-8,1,0,0,-12,-26
1622149731451200,10,18,17,3,0,-4,39,38
1622149731452201,0,-8,-6,-2,5,19,-17,-6
1622149731452201,-1,13,3,26,12,-12,8,5
1622149731465877,-2,2,-5,-22,-14,10,-14,-23
1622149731465877,-4,-5,-8,-1,-11,14,0,-11
1622149731474035,2,-9,2,23,13,-5,2,-10
1622149731474035,0,1,6,-6,15,27,-6,7
1622149731487806,5,14,4,4,-21,-4,11,11
1622149731487806,-5,-3,8,3,-4,14,20,-6
1622149731496649,2,1,0,-1,5,-40,-43,4
1622149731496649,-5,-11,-11,-13,-10,-13,28,-7
1622149731519805,0,3,9,12,6,-18,-13,1
1622149731519805,4,2,1,-3,35,12,-19,19
1622149731519805,-4,-12,-10,-14,-32,37,63,9
1622149731519805,-8,-6,2,4,-13,-24,-45,-15
1622149731525832,9,3,-2,1,-13,-13,-27,-10
1622149731525832,0,-12,-9,-8,14,-15,16,-6
1622149731533247,7,-1,-2,-5,10,11,-27,-6
1622149731533247,-11,2,-7,-8,-7,0,1,13
1622149731548206,-3,-4,7,12,-8,-24,25,2
1622149731548206,5,-2,-1,-9,1,9,-16,-9
1622149731556190,-2,-1,-3,14,3,-12,-23,-5
1622149731556190,2,-4,-5,-8,-48,12,28,-13
1622149731571128,0,2,2,-9,32,-17,-30,3
1622149731571128,-8,-6,-8,-3,-4,9,0,-1
1622149731572121,3,6,-2,-7,-20,-22,-3,-1
1622149731572121,7,-11,8,-12,35,15,0,-8
1622149731585514,0,16,0,3,-36,-29,-13,-14
1622149731585514,-1,-7,-5,-4,3,12,47,16
1622149731594090,-7,-4,-3,-7,-16,19,18,7
1622149731594090,4,-11,9,14,25,-30,-18,13
1622149731608481,5,-12,-8,-15,5,16,-10,-1
1622149731608481,-6,31,2,0,-35,-22,-10,-10
1622149731615896,-4,-4,-4,0,6,14,25,-6
1622149731615896,6,6,-9,2,-5,-19,-13,-11
1622149731630873,-3,-21,-5,-3,4,32,-15,15
1622149731630873,-6,12,4,20,-4,-20,-25,-8
1622149731638822,3,-2,1,-18,-10,7,22,9
1622149731638822,-2,-3,-10,5,-11,22,-15,-4
1622149731645829,-4,-8,3,7,13,-28,27,-1
1622149731645829,11,-8,-3,-1,14,9,-11,14
1622149731653802,-5,13,10,6,0,4,-7,14
1622149731653802,-3,8,-5,-16,-16,2,-13,-14
1622149731667742,-2,-5,-2,6,9,7,25,7
1622149731667742,0,-20,-8,5,-5,-2,-4,-22
1622149731675875,-9,-10,-1,-3,-10,24,4,27
1622149731675875,0,18,-5,-9,-9,-22,6,2
1622149731690392,-9,8,-7,1,11,4,49,0
1622149731690392,1,-2,22,1,40,23,-19,-4
1622149731698370,3,-8,-5,4,-22,-24,10,-11
1622149731698370,-1,-15,-2,11,9,24,-2,43
1622149731705353,5,15,8,11,2,-39,-25,-31
1622149731705353,-2,-5,-10,-15,-20,2,7,5
1622149731713359,-4,0,3,-13,5,8,-15,-13
1622149731713359,1,-18,0,15,1,10,12,13
1622149731728414,4,51,2,1,0,19,-5,-5
1622149731728414,-5,-17,-10,-13,-27,-11,-8,-4
1622149731736424,0,5,2,23,44,12,-12,-15
1622149731736424,1,3,3,-9,-25,-16,-16,13
1622149731750381,-7,-26,-4,-5,-10,-23,1,-11
1622149731750381,4,9,3,14,8,16,27,20
1622149731758338,-2,5,-11,-21,0,-16,-21,-8
1622149731758338,-4,-14,10,14,33,10,35,-16
1622149731774802,2,-2,-7,-19,-24,-16,-43,6
1622149731774802,2,-5,-11,15,36,5,25,25
1622149731774802,-13,-1,1,-8,-28,-28,-31,-23
1622149731774802,8,10,0,5,0,-4,39,12
1622149731797298,1,15,9,6,10,-7,-11,6
1622149731797298,8,-9,-8,-15,-14,-2,-11,6
1622149731797298,-1,7,4,-9,-15,0,15,6
1622149731797298,-3,-1,-5,8,-30,-26,19,-7
1622149731810937,-7,-11,-3,-9,41,44,8,16
1622149731810937,1,-7,-4,-9,-15,6,-11,-41
1622149731818872,1,-19,-6,11,-7,-14,10,23
1622149731818872,-7,23,5,-3,-4,-12,-33,-9
1622149731834413,-12,-20,-1,5,8,14,16,6
1622149731834413,12,-5,6,-8,-20,-15,-14,5
1622149731835436,-2,19,6,2,11,21,-5,-25
1622149731835436,3,-13,-8,-15,-11,-41,-39,-2
1622149731848393,-2,-8,2,16,6,7,-15,-12
1622149731848393,-10,10,3,-4,-1,-7,-7,25
1622149731856659,7,-5,-1,10,28,-18,29,13
1622149731856659,-5,-3,-1,-8,-6,32,12,-15
1622149731870631,0,-15,-6,-3,-19,-11,14,-2
1622149731870631,5,15,7,15,1,-9,-13,-9
1622149731879031,-9,4,-18,-12,29,10,17,3
1622149731879031,-2,9,17,11,0,26,-19,-5
1622149731893800,-3,-20,-3,-9,-41,-10,4,-22
1622149731893800,-3,8,-5,-16,29,-2,16,16
1622149731894778,0,-12,0,19,10,16,-41,-14
1622149731894778,-3,9,-3,-7,-6,-46,17,-6
1622149731907761,-1,-14,-1,-7,-13,9,18,19
1622149731907761,-10,-3,-6,7,15,6,-13,-16
1622149731915894,-3,-6,-2,2,-2,28,-20,-26
1622149731915894,13,2,0,2,15,-20,10,49
1622149731930122,4,0,0,-9,-8,0,6,-7
1622149731930122,-4,-4,2,12,-2,-22,-5,-13
1622149731939104,-4,7,-3,-23,-16,18,7,2
1622149731939104,-4,-15,-5,19,48,0,-27,-5
1622149731954068,2,3,5,27,-37,25,31,2
1622149731954068,6,11,-11,-16,7,-6,36,9
1622149731954068,-7,-14,-4,-22,-18,-30,-13,1
1622149731954068,-2,-4,4,-14,-1,4,-2,-9
1622149731968181,-1,17,-3,7,15,0,-17,0
1622149731968181,2,-1,3,-2,-7,-16,-9,16
1622149731976674,10,-20,-8,-9,-1,1,17,8
1622149731976674,-1,25,10,13,-6,8,23,-28
1622149731990520,-3,-3,-5,-11,0,-29,-27,43
1622149731990520,2,-14,-3,-21,-14,16,-10,-24
1622149731999166,-3,13,5,13,13,-17,36,12
1622149731999166,-9,-1,-5,3,-3,34,-38,-35
1622149732014050,9,12,-1,5,5,-72,-25,-3
1622149732014050,-5,-3,15,-4,13,52,42,-3
1622149732014050,2,-3,-3,-6,-13,-4,-46,-4
1622149732014050,0,-13,-14,0,-8,11,-22,-5
1622149732028457,-7,1,2,15,5,-9,32,0
1622149732028457,-6,0,5,8,15,-8,-18,-7
1622149732035815,3,15,7,7,-1,-12,19,6
1622149732035815,-4,-10,7,-10,-20,-12,-10,-1
1622149732050855,2,-1,-12,-16,11,55,20,2
1622149732050855,-1,-6,14,12,2,-44,-31,-8
1622149732059117,9,10,13,21,-55,-15,40,10
1622149732059117,-2,-1,-15,-26,50,36,-33,-9
1622149732074054,-5,-20,-12,-22,-18,-14,8,12
1622149732074054,2,17,6,32,-11,24,20,7
1622149732074054,6,4,-2,2,21,3,4,-7
1622149732074054,4,6,1,-4,9,-4,-21,7
1622149732087926,1,-3,1,5,-10,2,-3,-4
1622149732087926,-11,-14,-16,-6,-10,-7,-24,-10
1622149732095776,-1,7,0,2,16,2,8,11
1622149732095776,-3,-2,5,10,-28,-9,14,-1
1622149732110922,9,-4,5,-22,32,49,-11,-10
1622149732110922,-8,9,-4,23,-17,-65,-45,-6
1622149732118707,-9,-4,1,-14,4,3,25,-2
1622149732118707,4,-18,-9,-7,-3,12,24,5
1622149732133792,-4,8,-5,-15,10,-29,-20,-5
1622149732133792,9,-2,9,5,-58,-11,-1,8
1622149732134792,-9,-9,6,-2,15,43,-16,-35
1622149732134792,-5,-10,-3,12,-17,-28,16,25
1622149732148496,7,7,3,-4,-5,-5,16,-27
1622149732148496,-4,-16,-8,-5,15,20,-8,7
1622149732156646,1,22,-3,-13,10,-24,-30,-7
1622149732156646,2,-15,-4,3,-17,1,52,8
1622149732170794,5,16,3,-1,-3,24,-38,-24
1622149732170794,-14,-11,8,-5,27,-9,14,-4
1622149732179081,2,-3,1,10,-16,-48,-36,1
1622149732179081,-1,7,0,1,8,-6,31,-4
1622149732193810,-4,-8,-5,13,12,1,4,15
1622149732193810,-1,0,-10,-16,8,21,32,-8
1622149732194790,0,1,-6,0,0,9,-30,11
1622149732194790,2,10,-6,-9,-4,7,-5,-12
1622149732208474,-9,-8,4,12,-8,-13,9,25
1622149732208474,4,-6,-11,-3,1,21,15,-4
1622149732215803,-4,-19,1,-15,-1,-13,3,-1
1622149732215803,6,18,-4,-7,2,-11,-20,2
1622149732230849,0,-3,6,13,9,31,20,-2
1622149732230849,4,-4,-6,-2,-24,-3,-27,18
1622149732238864,-2,6,-7,10,16,3,13,1
1622149732238864,3,-9,-1,-20,-51,11,27,-3
1622149732253822,-1,11,1,5,14,-30,-27,-18
1622149732253822,-3,-6,-6,-14,-27,16,36,1
1622149732254794,5,20,4,15,5,4,-4,0
1622149732254794,-5,-1,-2,-8,16,-11,-4,4
1622149732267757,9,14,-5,-9,-6,17,10,7
1622149732267757,-10,-28,-6,-3,12,-11,-6,10
1622149732276657,-4,4,-2,-10,-13,-12,-18,-19
1622149732276657,4,7,10,17,7,11,-16,-11
1622149732290501,-3,0,-4,18,16,-31,-21,-12
1622149732290501,8,17,1,-13,22,42,-12,-8
1622149732299134,-4,-22,-5,-9,-6,-19,28,21
1622149732299134,0,-3,-4,-8,-24,-17,-50,29
1622149732313893,-1,-10,-3,11,22,2,10,1
1622149732313893,7,4,3,-3,-27,-9,-21,-23
1622149732314948,-7,5,-8,6,-5,15,22,-2
1622149732314948,-6,-12,6,-7,2,7,7,-15
1622149732328518,-7,5,-7,-19,-5,-14,10,17
1622149732328518,7,11,-4,-1,0,-12,-6,-16
1622149732335813,7,-10,-2,11,-14,-5,-20,0
1622149732335813,-2,-3,0,-16,-2,20,2,8
1622149732359819,-17,-14,-2,-13,-27,25,-19,-41
1622149732359819,5,30,-1,6,0,5,30,4
1622149732359819,5,-13,-3,4,15,-46,-25,2
1622149732359819,0,3,-3,-10,-10,18,-13,-6
1622149732373856,-8,-20,0,42,-9,-3,-2,5
1622149732373856,-4,0,-4,-23,17,-19,-4,-7
1622149732374859,11,1,1,-5,-3,15,18,-11
1622149732374859,-3,13,0,22,14,-17,-15,31
1622149732387880,7,-4,3,-9,-7,5,-10,5
1622149732387880,-8,-13,-4,-7,-35,-4,15,0
1622149732395859,1,6,-1,-5,22,-2,-5,-7
1622149732395859,-3,-9,-3,-1,8,11,10,-39
1622149732410792,7,15,7,26,2,1,-41,3
1622149732410792,-7,-21,-8,-34,16,15,28,8
1622149732419075,-6,6,-4,-11,-15,-12,-1,-10
1622149732419075,-9,-20,-6,9,4,-8,20,6
1622149732433779,9,5,-7,3,-5,7,15,14
1622149732433779,-3,5,11,-5,16,-3,-26,-12
1622149732434779,8,4,5,14,-17,1,0,10
1622149732434779,-5,0,-13,-23,22,-9,-8,10
1622149732448507,-3,-21,-1,-3,-18,8,15,1
1622149732448507,2,8,1,1,23,-5,-10,-3
1622149732456488,-8,-6,0,-3,-6,7,14,7
1622149732456488,2,8,3,18,-4,3,-6,-21
1622149732470152,4,0,0,-23,-3,-19,-19,2
1622149732470152,-6,-16,-6,5,1,25,48,12
1622149732479110,-6,-17,8,20,6,25,2,-8
1622149732479110,3,22,-3,2,-24,-78,-15,-5
1622149732493769,-8,-8,-5,-25,-2,24,-11,-2
1622149732493769,5,2,3,19,4,-4,28,10
1622149732494791,-2,2,-4,-2,-26,-19,-8,-1
1622149732494791,-6,-8,0,0,17,6,-7,-10
1622149732508478,-2,9,9,-7,-7,-6,9,10
1622149732508478,2,-10,-3,15,5,-38,-26,-1
1622149732515906,-7,-11,-9,-14,-1,46,2,-30
1622149732515906,7,9,-1,-12,-19,-45,-26,12
1622149732530974,3,6,-7,41,39,11,30,-6
1622149732530974,-4,-1,-3,-36,-21,6,-8,-6
1622149732538979,5,-32,-5,-18,7,-19,-12,-14
1622149732538979,-2,40,0,12,-19,37,18,22
1622149732553001,1,-6,-3,-21,9,-32,-13,-2
1622149732553001,-3,-8,-7,9,25,-4,-28,-1
1622149732561600,-6,13,5,14,-42,-27,30,1
1622149732561600,-4,-36,-7,8,0,17,9,-3
1622149732568664,0,26,0,-7,-6,-7,20,9
1622149732568664,1,2,11,36,13,14,-21,0
1622149732576653,3,10,-7,-36,9,-5,-27,6
1622149732576653,-1,-3,9,13,60,40,18,-4
1622149732590799,-1,2,6,12,-66,11,30,10
1622149732590799,6,6,-10,-21,6,-16,-64,-48
1622149732599142,4,2,0,18,8,0,0,14
1622149732599142,-1,3,2,-2,-17,2,37,-12
1622149732612965,-7,-17,2,1,16,19,5,5
1622149732612965,-2,21,-1,-3,-27,-36,-36,-10
1622149732621634,-4,3,3,15,11,29,22,19
1622149732621634,5,-3,-2,-40,-32,-16,-29,-16
1622149732628466,7,-14,1,-4,11,7,25,0
1622149732628466,-23,-6,-6,4,2,-9,3,-3
1622149732635817,16,22,3,9,-26,12,16,8
1622149732635817,-1,9,4,4,30,29,0,-3
1622149732650805,-5,-6,-8,-18,-27,-57,-15,-24
1622149732650805,10,-14,4,1,5,25,16,45
1622149732659133,-13,5,7,4,18,16,22,8
1622149732659133,-3,-7,0,12,-3,-29,-24,-2
1622149732672798,-4,-15,-20,-34,9,17,-3,-7
1622149732672798,7,18,12,9,-20,-8,1,0
1622149732681558,-7,-8,-2,-2,16,20,34,2
1622149732681558,-1,-7,-9,-1,4,-2,-13,-9
1622149732688350,-9,-22,7,9,-10,3,-7,28
1622149732688350,3,9,-8,-7,8,-15,34,6
1622149732696326,-6,15,3,-5,1,-9,-28,-6
1622149732696326,-1,0,5,18,-17,-18,19,0
1622149732710972,-4,-13,-8,-4,-20,1,-24,-19
1622149732710972,-6,-3,3,-12,15,22,15,2
1622149732718896,4,-11,-5,2,-1,-29,5,0
1622149732718896,-1,-14,-4,-15,-5,-30,-20,-5
1622149732732426,-7,20,2,15,13,31,-22,-28
1622149732732426,7,6,-3,2,5,2,41,26
1622149732740431,-1,-8,-6,1,-44,-31,-55,-15
1622149732740431,-4,-3,-5,-23,12,-6,33,5
1622149732757372,9,-8,3,0,13,-7,25,12
1622149732757372,-20,21,4,-3,-9,20,-30,-16
1622149732757372,12,-10,-4,1,38,-21,25,8
1622149732757372,10,40,2,14,7,10,-12,3
1622149732770844,5,5,1,-9,-19,-3,-23,-8
1622149732770844,-4,-5,-1,24,30,17,-15,34
1622149732785812,-8,-15,-4,-24,-29,4,-38,-29
1622149732785812,-8,-19,-7,-8,-33,5,29,-11
1622149732792795,6,12,6,23,36,13,4,5
1622149732792795,-1,-9,-11,-39,-13,-4,-43,-13
1622149732801748,-4,-13,6,7,9,4,5,-4
1622149732801748,3,10,8,10,-38,-21,-15,5
1622149732816896,-7,-5,1,-6,-6,1,13,14
1622149732816896,13,-11,-4,3,-5,-36,6,-8
1622149732818014,-17,18,0,-11,0,27,38,12
1622149732818014,3,-14,0,-5,16,-3,-45,-1
1622149732830964,-2,6,4,12,27,-28,-11,1
1622149732830964,1,-3,1,-9,-21,0,13,-15
1622149732839945,1,-5,-9,-2,-7,3,-15,26
1622149732839945,-4,-14,-3,-5,5,6,-6,-40
1622149732853193,-6,15,-3,5,1,-3,-21,30
1622149732853193,5,-9,6,7,5,30,29,-1
1622149732862386,-6,-15,-2,11,4,-4,-26,-23
1622149732862386,8,-8,-1,-10,7,23,-16,24
1622149732876663,3,5,4,5,50,-21,-3,-17
1622149732876663,0,-14,-2,14,-76,-25,-19,-9
1622149732883420,-10,-1,-5,-28,-13,-16,37,5
1622149732883420,-7,-10,-4,18,15,19,-6,7
1622149732890425,10,-5,-5,-29,15,-1,32,-12
1622149732890425,-11,13,5,-3,-2,1,-21,8
1622149732899427,7,3,-5,17,12,-12,-27,-36
1622149732899427,5,14,8,-6,-7,-11,2,5
1622149732913452,-2,1,-2,7,-19,26,-5,7
1622149732913452,-8,-13,1,5,19,-41,24,-7
1622149732921604,0,-10,-16,-32,3,38,-17,3
1622149732921604,-1,2,9,34,7,10,23,4
1622149732935370,-2,-3,-11,-14,-60,24,-13,-13
1622149732935370,-5,-10,6,-11,11,-17,-4,5
1622149732944346,5,26,6,31,29,4,-2,6
1622149732944346,-4,-12,-10,-6,2,-4,-10,-17
1622149732950326,-7,-21,6,10,-10,-2,-28,17
1622149732950326,12,61,-7,2,0,0,74,25
1622149732959334,3,-12,8,3,1,-12,12,16
1622149732959334,5,19,-3,-3,-2,-2,7,-1
1622149732973368,3,-4,0,-13,-21,-20,0,-11
1622149732973368,-1,-21,-9,11,3,7,-10,-6
1622149732982432,-2,-3,2,-3,-9,1,-15,4
1622149732982432,-5,-11,-4,2,-2,-14,14,0
1622149732995900,0,14,-1,-7,-1,-12,39,4
1622149732995900,3,7,0,0,7,15,-6,-1
1622149733004994,-2,0,14,-4,-16,-3,-1,-3
1622149733004994,-2,-22,0,-6,13,9,-23,-22
1622149733010997,1,10,4,1,-18,-3,8,12
1622149733010997,-5,-20,-12,-2,19,7,5,10
1622149733019777,1,-4,-9,-16,3,7,-38,1
1622149733019777,-7,-1,-8,-7,6,-25,39,7
1622149733032956,0,-3,10,8,-4,-41,-7,-7
1622149733032956,1,-2,-4,5,-5,12,35,-12
1622149733041862,-9,11,7,19,-11,-15,-24,2
1622149733041862,14,-9,-6,-11,9,0,-2,9
1622149733055931,-8,14,6,-2,6,17,20,-4
1622149733055931,8,3,-1,7,17,1,-30,-10
1622149733064994,-8,-37,-9,-5,-5,2,-16,-13
1622149733064994,-5,22,-4,11,-1,-2,4,-1
1622149733070863,1,-11,-6,-10,3,-1,10,-3
1622149733070863,-2,-1,7,-21,16,4,1,-5
1622149733079915,3,-5,-4,6,3,-8,-14,-2
1622149733079915,-3,1,3,-19,-25,55,15,8
1622149733092793,-6,-5,-11,-3,32,-39,-14,-6
1622149733092793,-1,-1,16,13,26,28,20,1
1622149733101765,7,13,-3,-5,-78,4,25,4
1622149733101765,-5,-12,-6,-15,-7,10,-3,21
1622149733115700,3,11,3,14,8,19,-8,-19
1622149733115700,-7,-3,-4,1,-15,-16,-31,-24
1622149733124677,5,-16,-1,4,21,22,2,26
1622149733124677,-5,9,2,-2,-14,17,25,8
1622149733130969,1,-17,0,-16,3,-30,-18,-26
1622149733130969,-7,9,-7,-18,-34,3,-14,14
1622149733139873,1,6,4,10,19,-26,-5,-9
1622149733139873,3,-4,-3,20,20,20,9,-4
1622149733153339,-3,0,0,11,-19,18,-11,1
1622149733153339,-6,-25,-2,5,10,13,3,-9
1622149733162289,13,43,-7,-15,1,8,12,10
1622149733162289,-6,-7,5,-2,-1,-10,-26,-4
1622149733175852,2,3,-9,-23,-14,0,15,4
1622149733175852,-10,-17,2,12,0,-15,-27,-2
1622149733185803,-3,-7,1,-8,1,12,30,6
1622149733185803,-2,-2,0,26,6,-12,3,-2
1622149733190789,2,-2,-2,-14,-1,6,-7,15
1622149733190789,0,7,-5,6,-19,30,21,-21
1622149733199763,-1,-11,-8,-25,54,-15,-23,3
1622149733199763,0,12,-1,-7,-31,-58,-35,-6
1622149733212726,-2,-3,-4,10,10,21,4,-37
1622149733212726,15,7,7,5,-26,-8,6,23
1622149733221780,-12,-11,0,-8,21,2,51,-20
1622149733221780,-1,-8,-2,1,9,19,10,18
1622149733235683,-5,8,-2,0,5,-55,-24,-16
1622149733235683,9,15,1,0,-5,-25,-9,-4
1622149733245044,-7,-11,-1,11,-10,-9,-22,-3
1622149733245044,-3,-9,-4,2,0,-2,4,-2
1622149733250721,-1,-2,-5,-11,-1,20,4,22
1622149733250721,-6,-12,-9,-5,-22,13,-9,-4
1622149733259784,2,-7,16,15,-1,-3,31,2
1622149733259784,0,12,-5,-20,-1,-29,-18,-11
1622149733272813,-8,-10,-3,6,12,4,-7,8
1622149733272813,0,2,6,4,15,2,-17,-2
1622149733282373,1,4,-23,-18,-55,3,9,-10
1622149733282373,-3,0,21,24,35,28,-25,-33
1622149733295375,14,13,11,3,4,-18,43,21
1622149733295375,-13,-45,-5,-6,11,-23,21,35
1622149733304321,1,14,-4,-9,12,-24,-19,26
1622149733304321,2,12,-5,-11,-9,-3,-6,-14
1622149733310304,-3,-5,-1,15,-10,4,-25,-3
1622149733310304,-5,-34,3,20,20,13,14,-9
1622149733319795,1,27,4,-2,-1,-9,-3,-4
1622149733319795,9,-12,-7,-7,-37,5,-11,12
1622149733333429,-7,5,-3,-12,-6,-16,23,5
1622149733333429,-7,-16,-6,8,-15,-8,-27,-11
1622149733342405,3,11,-6,9,43,26,5,-10
1622149733342405,-2,-7,5,-7,-19,9,20,4
1622149733355911,-1,-4,-8,-2,-6,8,-33,-8
1622149733355911,-3,10,2,-1,35,22,3,-42
1622149733364245,2,-19,9,5,-27,-42,-1,4
1622149733364245,-6,12,-3,0,21,19,43,28
1622149733370705,-4,-12,-2,-8,5,17,-21,-3
1622149733370705,12,13,-8,-15,-9,-24,-29,-9
1622149733379778,-3,-1,1,27,44,30,-12,-8
1622149733379778,-4,-18,-2,-8,-24,-15,30,3
1622149733392769,5,6,-2,-1,-26,17,-14,-1
1622149733392769,-6,8,7,0,0,-4,22,3
1622149733401728,-3,-11,2,5,-24,13,16,-4
1622149733401728,0,-40,-14,-21,-21,-36,-42,-10
1622149733415788,-3,31,-1,8,24,13,5,6
1622149733415788,-5,4,-12,-12,7,20,-3,-28
1622149733424861,-4,-2,13,9,-11,-7,-10,-7
1622149733424861,7,-8,3,-7,22,-4,3,27
1622149733430941,-1,-17,-4,5,-20,-8,-1,-14
1622149733430941,7,-8,-7,5,-9,-22,-27,27
1622149733439938,-5,27,-9,-25,-1,12,16,-10
1622149733439938,-5,5,8,23,2,-2,-24,0
1622149733452759,0,-7,-3,-39,15,17,18,4
1622149733452759,0,11,-5,9,-35,-18,-4,3
1622149733462395,3,-13,4,-2,1,-4,17,-6
1622149733462395,-4,-2,-5,4,-6,-34,-51,-9
1622149733475922,-2,21,7,15,2,17,40,2
1622149733475922,-1,-14,-1,-3,21,11,-20,-4
1622149733485432,-12,1,-8,-9,-12,-58,9,3
1622149733485432,4,13,3,-5,20,11,21,-2
1622149733499540,3,-15,1,28,-12,39,-25,25
1622149733499540,-6,18,2,-18,-5,-48,8,-16
1622149733500540,0,-14,-10,-25,-28,7,23,12
1622149733500540,-10,-18,-11,8,25,22,-18,-12
1622149733513518,9,24,14,26,23,-16,-10,2
1622149733513518,-1,1,-2,-5,-25,-1,4,13
1622149733522331,1,-4,9,10,-15,28,-36,2
1622149733522331,5,8,-3,-8,7,-31,19,-15
1622149733535866,-6,-29,-8,-17,-21,13,9,-9
1622149733535866,3,17,8,0,9,-23,-20,20
1622149733544820,10,-9,-7,11,7,20,7,-32
1622149733544820,-9,14,4,-11,-15,-2,-21,-6
1622149733550802,-1,-6,-3,-9,-5,3,-1,2
1622149733550802,6,3,4,17,-14,2,4,14
1622149733559778,-1,-7,-2,-17,14,-6,5,0
1622149733559778,8,3,-1,2,-9,-25,0,3
1622149733573432,-11,-5,-9,0,-9,-14,-7,2
1622149733573432,-7,-6,-3,-9,15,19,-22,-27
1622149733582365,3,2,2,21,5,4,21,34
1622149733582365,-5,-3,-6,-14,-8,27,15,15
1622149733595361,1,-5,6,13,0,-21,2,-11
1622149733595361,5,22,0,-15,9,29,1,2
1622149733605018,-6,-10,-3,15,8,-28,-65,-30
1622149733605018,-1,3,4,19,-9,15,31,-8
1622149733611001,-4,-9,-5,-34,2,-11,-10,6
1622149733611001,-1,-7,-2,2,12,18,10,-1
1622149733619777,-8,-2,0,-4,-10,1,-2,1
1622149733619777,0,2,-13,3,13,-10,-41,-10
1622149733632926,2,0,12,4,-7,19,39,-4
1622149733632926,9,1,-8,-14,-30,-12,22,9
1622149733641630,-15,-1,1,1,6,-4,-20,-13
1622149733641630,5,1,4,-27,-7,10,-6,-33
1622149733655817,-3,-27,1,40,17,-9,-3,10
1622149733655817,2,59,3,-12,-2,-17,26,25
1622149733664118,10,-17,-6,-7,16,1,-15,29
1622149733664118,-5,0,8,7,-20,12,16,-38
1622149733679776,-5,-10,-12,-27,13,-18,-33,-5
1622149733679776,-5,-26,1,17,3,19,15,-7
1622149733680783,4,10,-2,-5,-4,-7,-13,-4
1622149733680783,0,6,4,7,12,-9,8,27
1622149733692770,3,7,1,15,4,-5,-5,-6
1622149733692770,-1,-9,-5,-25,-4,-1,-5,-3
1622149733701722,3,11,7,31,-1,-3,24,-2
1622149733701722,-5,-8,-2,-5,2,2,-24,0
1622149733715789,10,9,-2,-3,1,-14,4,-3
1622149733715789,-10,-5,0,-1,-11,8,2,-8
1622149733724233,-8,-4,0,-5,-3,34,15,0
1622149733724233,8,8,3,22,13,-26,-5,10
1622149733739442,-3,1,8,-8,-4,-1,-33,-7
1622149733739442,-1,-9,-2,2,-2,-2,28,16
1622149733741436,0,-4,-2,-5,3,18,13,-3
1622149733741436,-5,-6,-5,0,33,10,18,2
1622149733753536,2,10,-8,8,-27,18,39,5
1622149733753536,4,-5,-2,-11,18,-31,-54,-6
1622149733762391,-3,6,1,2,-10,-2,-5,-3
1622149733762391,-3,-3,-14,-10,39,35,5,10
1622149733775890,1,3,17,2,-47,-28,10,0
1622149733775890,-6,-11,-4,13,0,15,16,-10
1622149733785425,4,1,-7,-11,6,-14,-27,-4
1622149733785425,-1,0,6,14,-6,2,28,30
1622149733799120,3,4,-6,-21,-8,-46,-37,-9
1622149733799120,-11,-28,-13,12,3,1,-11,-7
1622149733801008,-4,14,-11,-22,1,4,1,-16
1622149733801008,4,-7,-11,7,3,-3,14,-4
1622149733813499,3,12,33,13,27,6,-38,7
1622149733813499,2,0,7,13,3,-7,33,-1
1622149733822334,-3,-15,1,-23,10,-1,-29,-8
1622149733822334,-8,-15,-17,-17,-25,-19,-30,-10
1622149733835376,-4,12,-4,5,-18,-7,-3,-1
1622149733835376,8,2,3,-3,11,-6,3,-3
1622149733844325,-11,-23,-7,7,-31,40,17,-10
1622149733844325,2,25,9,-21,14,-3,9,35
1622149733859860,-2,-21,-12,1,-13,2,11,3
1622149733859860,2,0,4,-8,-3,-4,38,35
1622149733861485,0,9,-5,23,-3,-36,-33,-13
1622149733861485,0,-6,13,-2,1,4,-10,-14
1622149733873518,2,11,-5,7,5,12,32,10
1622149733873518,-16,-57,-14,-15,5,25,-52,-24
1622149733882327,17,63,12,-4,-4,-7,30,20
1622149733882327,0,-6,-2,26,-25,1,-6,-4
1622149733896009,-7,4,-4,8,47,1,-29,-45
1622149733896009,2,-9,-8,-42,-49,-18,25,23
1622149733904170,1,-7,8,5,35,13,-13,-4
1622149733904170,0,3,1,-4,-33,-25,-7,-15
1622149733919813,-4,1,-2,17,10,15,42,-4
1622149733919813,6,9,-13,-22,2,-15,-21,-10
1622149733920815,7,-11,6,14,-8,1,16,18
1622149733920815,7,2,-6,-15,-14,12,-21,3
1622149733933390,-18,-21,0,-8,13,0,56,1
1622149733933390,-1,27,10,22,11,-24,-17,-4
1622149733942365,1,-2,-6,-8,-40,-15,-20,-4
1622149733942365,-5,-30,-12,-2,-4,12,-25,-17
1622149733955333,0,8,-16,-13,8,-24,-15,-27
1622149733955333,-3,5,12,2,-4,25,-8,28
1622149733964270,-2,10,-3,-6,-7,-6,29,20
1622149733964270,0,-9,4,23,-2,-18,-6,-3
1622149733979873,-5,5,-9,-24,-3,27,-9,2
1622149733979873,-4,-3,-8,28,-28,-6,-30,-39
1622149733980871,0,-19,1,-45,18,-18,3,0
1622149733980871,1,9,6,0,9,-11,3,7
1622149733992840,3,-6,-2,4,-10,-1,-31,6
1622149733992840,1,29,-2,1,15,5,7,-14
1622149734001774,-6,-18,1,10,-11,2,25,13
1622149734001774,0,7,-3,-8,7,16,-42,-29
1622149734015967,8,1,-5,-7,7,12,13,11
1622149734015967,-9,0,22,20,29,-47,1,0
1622149734024275,-2,-6,-2,19,-26,7,-47,-15
1622149734024275,-11,3,-14,-29,12,18,60,-6
1622149734039414,1,-17,9,17,4,21,-14,35
1622149734039414,4,-6,-11,-11,1,-21,-38,-51
1622149734041409,-1,25,6,17,20,3,8,-7
1622149734041409,4,-17,-2,-7,-9,-2,6,16
1622149734053484,-4,-7,-10,4,-6,-11,-29,-8
1622149734053484,0,19,8,-5,-2,26,28,6
1622149734061869,0,-20,-3,26,23,-7,13,5
1622149734061869,3,12,13,-12,-10,-5,17,3
1622149734075878,7,-3,-2,-6,-5,-5,12,-4
1622149734075878,-11,-8,-8,0,10,-9,-4,13
1622149734085421,0,-13,4,-17,-17,2,2,7
1622149734085421,3,9,5,2,18,8,-24,8
1622149734099493,-1,-3,0,6,5,5,49,2
1622149734099493,0,-10,-1,5,-37,-2,-26,11
1622149734100493,0,10,-10,-16,10,-19,3,-31
1622149734100493,-4,-9,2,8,-8,-1,26,17
1622149734113478,-5,-10,6,-1,8,1,-15,-6
1622149734113478,10,34,-4,-4,9,29,25,12
1622149734122329,-5,-10,-5,-17,5,-9,-21,-10
1622149734122329,-4,-18,-18,-11,-8,-6,8,-7
1622149734135605,6,20,14,3,-7,2,-12,-3
1622149734135605,-6,-15,3,35,11,-8,6,-17
1622149734144555,0,-5,-1,-28,-4,8,-12,20
1622149734144555,-1,6,3,17,8,-3,27,8
1622149734159888,-2,-15,-16,-28,-26,-10,2,2
1622149734159888,5,3,7,10,16,-13,-4,-2
1622149734160861,-2,0,-1,-2,-56,10,-11,-3
1622149734160861,-7,-4,-7,12,19,-5,17,4
1622149734172863,-2,-13,0,-2,-2,-25,-30,-32
1622149734172863,-6,-3,2,-8,12,17,22,12
1622149734182337,-4,-16,-3,14,6,-10,-9,-18
1622149734182337,11,48,9,-1,-14,-9,-50,-1
1622149734195326,5,-3,-6,9,-1,0,16,20
1622149734195326,-2,-14,-4,-14,-7,9,-25,-2
1622149734204284,12,8,2,21,-14,0,25,-2
1622149734204284,-4,-13,-1,-19,10,-17,-33,-10
1622149734218986,-6,9,3,-13,-38,24,-4,-9
1622149734218986,1,-9,-6,-15,3,6,13,17
1622149734225844,-1,-12,10,5,10,-14,-13,5
1622149734225844,-1,3,3,15,-1,12,10,-6
1622149734233011,-4,0,-11,-22,4,-20,-3,2
1622149734233011,3,14,2,10,5,17,24,4
1622149734241984,-1,-20,-5,-2,15,8,-34,-30
1622149734241984,-6,8,3,2,-17,0,15,36
1622149734255959,-4,3,-4,1,-3,1,19,-1
1622149734255959,2,-11,-10,-21,-6,-8,-18,3
1622149734264922,3,11,10,7,16,43,18,6
1622149734264922,-6,-15,5,23,-22,-17,-16,-8
1622149734278429,-2,6,1,3,1,-14,7,-8
1622149734278429,3,-13,-8,0,12,-24,-4,12
1622149734286883,-4,1,1,2,-1,8,23,27
1622149734286883,6,-4,-2,-4,-6,15,-20,-25
1622149734292891,-2,15,1,10,13,13,-2,13
1622149734292891,-6,-4,7,-12,13,-1,-10,-57
1622149734301865,9,-4,-4,-5,6,12,42,47
1622149734301865,10,-41,-7,6,-4,-17,27,11
1622149734315813,-10,32,-6,-5,22,-2,-36,-5
1622149734315813,-3,-1,1,-2,-40,-1,-8,-30
1622149734324955,-3,-1,-6,3,21,-6,-27,14
1622149734324955,0,-1,-5,-16,-11,13,42,-4
1622149734338386,5,-7,1,-8,-9,10,-5,-1
1622149734338386,1,2,-3,-1,-11,9,-8,18
1622149734347338,-9,1,-1,3,0,-15,-41,-21
1622149734347338,-4,8,-3,0,21,-8,44,1
1622149734353348,2,-9,-2,-4,-34,-23,-41,-28
1622149734353348,-4,0,-1,9,-13,27,34,22
1622149734362296,-2,-1,-14,-30,10,-33,-26,-5
1622149734362296,1,9,20,10,-5,4,8,-2
1622149734375285,-6,-8,-4,-5,5,22,-16,-11
1622149734375285,-1,-9,3,13,-13,2,-5,21
1622149734385427,8,9,-1,2,13,-13,26,-4
1622149734385427,-9,6,-7,-12,21,-13,-20,-6
1622149734398559,2,-18,-1,17,-1,-20,11,8
1622149734398559,3,1,-2,-11,-14,11,-19,4
1622149734406842,-13,7,-5,8,1,-2,34,33
1622149734406842,-6,1,1,1,3,9,-22,-24
1622149734413511,11,-1,-4,3,10,-2,-10,13
1622149734413511,-3,-8,-1,17,28,-5,26,-7
1622149734422795,0,10,2,-27,-45,-3,12,2
1622149734422795,-5,-15,-8,-23,-28,-32,2,-17
1622149734435437,1,10,-2,1,13,11,32,30
1622149734435437,-2,14,-6,1,12,-45,-4,8
1622149734452356,-1,2,4,11,14,-1,-16,-22
1622149734452356,-6,-9,-5,-13,-44,22,-2,2
1622149734458359,8,-11,-4,-6,0,-9,-6,-1
1622149734458359,0,2,0,-1,12,11,19,-2
1622149734467341,-7,-1,2,14,-13,-21,-10,-1
1622149734467341,12,12,3,2,5,-4,-20,1
1622149734473468,0,-18,6,-16,10,5,37,17
1622149734473468,5,8,-5,-5,-5,-3,-17,-9
1622149734482316,-4,-2,12,9,-5,-7,-24,-19
1622149734482316,0,-1,-6,-2,11,1,-18,4
1622149734495990,-5,1,-2,0,-30,3,12,1
1622149734495990,-6,-7,-6,-27,11,-7,13,-20
1622149734504307,3,3,1,8,26,2,-63,-4
1622149734504307,-1,-3,-4,-5,-60,-41,14,-1
1622149734518474,-2,10,4,16,11,2,-13,-2
1622149734518474,2,-23,-2,12,5,-7,-4,-1
1622149734526731,-4,10,-9,-18,-13,-2,-9,-14
1622149734526731,-10,-9,5,10,45,27,7,0
1622149734533360,-3,-16,-1,-6,-20,-21,-22,-24
1622149734533360,3,2,-2,7,-18,21,16,40
1622149734542358,7,14,0,2,2,-14,-25,-51
1622149734542358,6,7,12,34,27,-2,4,12
1622149734555331,-8,-10,-7,-22,5,-37,9,-12
1622149734555331,-2,-8,0,-3,-2,36,-6,-8
1622149734564274,2,1,-9,-4,-3,-26,29,10
1622149734564274,-5,0,-5,4,-1,16,4,-5
1622149734578571,3,7,8,16,-21,-28,-60,-2
1622149734578571,-5,-10,-9,-14,0,0,20,-5
1622149734587428,4,2,-7,-11,-5,21,41,17
1622149734587428,-2,-5,-7,-17,2,9,-23,-17
1622149734593506,-6,-2,7,18,32,2,12,43
1622149734593506,-6,8,-1,-13,-20,6,16,7
1622149734602464,3,3,-1,-11,-13,6,4,-1
1622149734602464,-3,1,-2,1,10,-29,-30,5
1622149734615489,-5,-12,-4,-12,-8,8,33,-19
1622149734615489,1,5,0,7,6,-7,-39,-20
1622149734624495,-3,8,4,-14,-18,-3,52,22
1622149734624495,5,-7,-1,6,-4,35,-13,-5
1622149734638374,4,20,2,6,16,17,-7,-1
1622149734638374,1,5,-5,-9,-2,-21,-1,-13
1622149734647324,-7,-9,3,-11,-58,-21,1,0
1622149734647324,-6,1,-2,7,24,24,10,-4
1622149734662303,2,11,1,4,-23,-10,-8,-19
1622149734662303,1,20,5,5,32,8,-20,7
1622149734663279,-4,-23,-5,11,-11,12,6,0
1622149734663279,-3,-13,-6,-3,-7,-14,59,16
1622149734676023,5,15,4,4,5,37,-22,-3
1622149734676023,-5,-6,1,12,-20,-51,-39,-14
1622149734685374,9,-7,-7,-23,20,24,19,3
1622149734685374,-3,-4,1,5,-11,-19,-8,-8
1622149734698517,-3,-7,9,-10,5,12,14,2
1622149734698517,5,-3,3,27,-4,-10,7,34
1622149734707515,-7,5,1,4,8,5,29,3
1622149734707515,2,-8,-11,-24,-14,-32,-36,-10
1622149734721227,7,31,7,22,4,12,-10,1
1622149734721227,-5,-8,2,-19,11,10,24,-3
1622149734729784,-1,-16,-7,15,11,13,-64,-4
1622149734729784,2,11,-11,-14,6,33,12,2
1622149734735806,1,3,10,-5,26,-1,8,0
1622149734735806,1,-6,-3,-10,-48,5,-39,-19
1622149734744754,-1,-14,0,19,45,18,45,8
1622149734744754,0,21,6,8,0,34,-5,2
1622149734757742,0,-12,-10,-13,7,3,2,-4
1622149734757742,-5,-5,-4,-5,8,-16,-10,-4
1622149734766696,7,1,5,8,5,10,25,7
1622149734766696,-1,2,1,1,9,-7,-40,-13
1622149734781690,-15,-32,-14,-9,-4,-20,12,-26
1622149734781690,10,29,8,-3,21,-19,48,0
1622149734783646,2,-28,-10,14,-22,-40,-59,-17
1622149734783646,-11,7,2,-8,4,8,8,6
1622149734795639,1,5,-1,-20,9,7,-12,-2
1622149734795639,4,8,3,-8,-14,-1,-3,-6
1622149734804768,-6,-4,-10,-13,3,-17,27,5
1622149734804768,12,5,2,-4,-2,-14,7,1
1622149734818463,-12,-8,-11,19,-17,-1,21,5
1622149734818463,-4,-17,12,-1,-5,24,12,-1
1622149734826728,5,9,-9,-2,0,-24,-21,5
1622149734826728,-7,-1,18,-2,-18,-24,-28,2
1622149734842386,2,-13,-10,-18,-2,-14,29,25
1622149734842386,-2,14,-2,15,2,6,-30,4
1622149734843343,-7,0,-4,-5,25,31,33,-16
1622149734843343,-4,-3,-2,-11,-25,-3,24,4
1622149734855337,-2,-7,-3,8,-11,-6,-49,-14
1622149734855337,3,-19,-1,15,-19,-63,-7,-6
1622149734864286,-3,17,3,4,16,76,-32,-13
1622149734864286,1,2,-1,1,-7,-16,31,5
1622149734878487,-10,-2,0,-10,28,12,20,-3
1622149734878487,0,5,-3,-5,2,30,-18,19
1622149734887250,-2,15,2,17,-2,-69,-5,-11
1622149734887250,11,-20,3,-13,11,30,38,23
1622149734902318,-5,8,4,11,-16,14,-32,4
1622149734902318,-5,-12,-11,-12,-7,9,-5,-42
1622149734903290,-5,-17,5,6,-5,-54,-23,8
1622149734903290,-5,10,-1,-2,20,45,-19,-11
1622149734915376,5,3,-9,16,9,-7,34,14
1622149734915376,-3,-9,5,-22,-13,2,5,-1
1622149734924735,-2,-2,8,1,-10,16,4,-4
1622149734924735,-3,-12,-3,12,-4,-24,-12,-7
1622149734938366,5,15,-14,-14,-13,-30,12,10
1622149734938366,0,-3,16,22,40,23,-26,3
1622149734947322,-4,4,-5,-25,-16,18,54,4
1622149734947322,-6,-3,4,13,-5,8,-35,-10
1622149734962307,4,-10,6,-7,-7,-16,-3,3
1622149734962307,11,3,-13,-4,18,1,7,-4
1622149734968287,-12,3,-1,-6,-27,-1,-41,-8
1622149734968287,-3,0,-7,-9,15,3,24,8
1622149734975266,0,-9,14,12,-9,5,9,-9
1622149734975266,-2,-4,-5,-13,-5,8,7,2
1622149734985217,4,-6,4,12,21,-30,-22,7
1622149734985217,0,13,-15,-34,-6,6,3,-16
1622149735007474,0,1,-12,-2,-49,-18,20,9
1622149735007474,-6,-7,6,6,-5,-14,-19,-2
1622149735009060,-6,-6,1,-1,35,29,-24,-18
1622149735009060,7,-2,0,9,-1,-20,-6,21
1622149735022361,5,15,8,15,13,15,24,-5
1622149735022361,-9,-12,-13,-11,2,-5,3,30
1622149735023367,-1,17,5,10,0,-26,-35,-30
1622149735023367,7,-10,-5,-12,14,3,-22,-11
1622149735035793,-4,-5,-12,0,-4,10,13,1
1622149735035793,0,5,10,10,-9,-8,23,2
1622149735044769,7,-25,-11,11,-20,17,1,15
1622149735044769,-7,18,4,-3,16,-17,8,2
1622149735057749,0,10,-4,-26,3,6,-48,-20
1622149735057749,-5,-7,-7,8,-24,-51,1,-5
1622149735066734,2,6,7,-1,15,8,24,9
1622149735066734,-4,0,6,22,-31,-24,-3,-5
1622149735082385,0,-6,-4,-25,44,21,-3,12
1622149735082385,-2,10,-1,15,15,32,-25,-10
1622149735083383,0,-21,-5,-28,-22,-8,-15,35
1622149735083383,-2,0,-12,5,-2,7,1,-17
1622149735095375,3,16,11,8,-17,1,12,1
1622149735095375,2,1,0,6,23,23,52,8
1622149735104346,-1,1,-1,-10,-30,-31,-35,4
1622149735104346,-6,-10,-10,4,-21,14,13,-14
1622149735118318,-1,-15,-4,-8,3,8,-1,7
1622149735118318,3,3,-3,-8,-2,2,-5,-9
1622149735126561,1,-3,2,4,22,21,23,-7
1622149735126561,2,5,4,1,2,-34,2,-3
1622149735141521,0,-1,0,-7,-18,-37,5,-2
1622149735141521,-1,-1,-4,3,7,13,-27,1
1622149735143790,-5,-2,-4,-12,0,10,17,-2
1622149735143790,0,-6,-1,2,43,16,0,5
1622149735156027,-2,-1,-1,-4,-23,-11,13,21
1622149735156027,-7,-6,-13,-1,29,-10,-16,-25
1622149735164276,7,8,11,-5,-20,3,8,2
1622149735164276,5,-6,-9,-7,1,-8,-7,4
1622149735178596,-4,-4,3,7,7,-2,-12,9
1622149735178596,4,-7,0,6,-18,8,13,-6
1622149735187420,-16,10,-17,-10,10,5,-20,14
1622149735187420,3,-4,7,-4,-13,-2,50,2
1622149735201867,1,-9,2,17,3,2,-43,-29
1622149735201867,-3,-15,-1,-28,-48,-12,4,-2
1622149735204000,3,-14,5,12,24,6,2,-3
1622149735204000,3,35,-4,-7,-35,-25,-17,-4
1622149735215881,-5,2,-8,-7,20,8,-20,-4
1622149735215881,-8,-11,6,0,-22,-6,14,-1
1622149735224270,5,-2,0,10,7,-13,2,16
1622149735224270,-1,-3,-13,-32,-8,28,-12,-7
1622149735238439,0,-20,15,28,23,-15,-4,-7
1622149735238439,2,30,-2,-16,-50,-17,-11,3
1622149735246815,-3,6,10,29,31,8,33,6
1622149735246815,0,3,5,4,-7,9,-37,-22
1622149735261908,0,4,-11,-9,-4,35,3,12
1622149735261908,5,5,10,6,11,3,-6,-4
1622149735264066,-1,-16,-13,-15,-7,10,1,-25
1622149735264066,4,-9,11,17,-2,-20,17,18
1622149735275887,-1,-9,-10,-1,-19,6,-29,-14
1622149735275887,-4,5,1,-10,11,17,27,9
1622149735285067,0,2,-4,-1,-4,25,1,-13
1622149735285067,1,-8,-8,-11,29,-59,-8,5
1622149735298537,-1,6,12,-12,-29,9,-19,6
1622149735298537,-6,-12,-10,23,31,-6,-30,-28
1622149735307621,-1,5,2,-9,5,-10,-29,-15
1622149735307621,-17,-8,-13,8,0,-2,42,1
1622149735321828,8,13,22,11,-1,-14,35,-12
1622149735321828,6,7,-3,-7,-17,2,-25,15
1622149735323803,17,-3,-3,4,4,10,15,2
1622149735323803,-19,10,8,15,2,6,-22,-3
1622149735335352,-12,0,-13,-26,4,-28,-1,5
1622149735335352,-2,-3,-1,18,21,19,0,-17
1622149735344366,7,3,-9,-16,-10,-49,9,22
1622149735344366,2,-3,10,4,-10,-12,28,0
1622149735358312,0,10,-7,6,15,23,20,23
1622149735358312,-7,-10,-4,2,-16,-12,-10,-18
1622149735366889,-7,-15,8,-2,-33,13,-3,12
1622149735366889,10,27,-3,0,-4,8,-33,-7
1622149735382400,-2,-4,2,-6,-23,-13,16,-4
1622149735382400,-3,-4,-5,-13,29,-1,14,-15
1622149735383399,-10,3,3,2,-6,3,-30,5
1622149735383399,1,-14,5,10,-8,3,9,3
1622149735396071,0,-1,-9,14,28,-5,4,-6
1622149735396071,1,5,-6,-11,-20,-1,-2,8
1622149735404738,-1,1,3,-4,-11,20,12,-19
1622149735404738,-2,-10,5,12,13,-11,-5,15
1622149735418619,-9,8,16,7,-9,-10,17,-15
1622149735418619,4,-7,-7,-3,-6,6,19,16
1622149735426840,1,12,6,-11,-14,-16,1,-4
1622149735426840,-5,-24,-7,-7,2,27,-5,2
1622149735441788,12,28,-5,5,30,2,-19,-7
1622149735441788,-4,-9,4,-10,-59,2,10,21
1622149735447966,-8,10,-11,16,51,-19,13,-11
1622149735447966,5,10,4,-23,-25,5,-36,-44
1622149735455971,-2,-27,-8,0,14,4,37,21
1622149735455971,5,21,2,-5,9,-8,-29,6
1622149735465060,-7,-15,-17,-28,-10,22,40,2
1622149735465060,0,-7,2,15,-12,-9,-18,3
1622149735478560,-9,-12,-11,-3,-27,-1,-41,-29
1622149735478560,6,-5,1,-9,22,-15,35,10
1622149735487410,-12,-5,5,23,-12,-17,3,-2
1622149735487410,-8,1,-7,2,4,10,-1,-3
1622149735501444,8,-3,-4,-12,-12,9,-17,13
1622149735501444,-1,-3,-4,3,9,0,12,1
1622149735508527,3,4,11,1,-20,-15,-40,-4
1622149735508527,4,-1,-1,-5,13,2,23,0
1622149735524865,-6,2,3,25,19,0,-40,-10
1622149735524865,1,-17,-9,-9,-12,42,12,-3
1622149735526529,5,12,-2,11,29,1,-4,-16
1622149735526529,6,-5,13,11,2,-5,-1,16
1622149735538405,-6,-6,-8,-25,-35,-1,11,-7
1622149735538405,-6,6,14,19,17,-11,-25,0
1622149735546842,10,-10,-1,0,-6,32,-21,5
1622149735546842,-8,-9,-10,-6,-14,-10,-21,-22
1622149735561803,-3,-8,-5,-2,15,-12,24,3
1622149735561803,-4,-1,3,-9,5,-5,-34,-10
1622149735568504,2,6,7,-5,-5,-3,24,24
1622149735568504,-2,-4,-17,-29,-14,19,12,10
1622149735575568,-1,-8,10,13,-22,-14,-10,-15
1622149735575568,6,9,8,6,23,-14,8,9
1622149735584355,0,5,11,2,-12,-12,-14,18
1622149735584355,5,11,-3,3,3,9,16,9
1622149735598316,-17,-19,-5,-20,-3,-6,-9,-12
1622149735598316,-3,-20,-6,-4,9,-2,13,-4
1622149735607291,-3,9,-11,-3,-20,-23,21,-1
1622149735607291,1,12,2,2,13,-1,-15,-18
1622149735621775,3,-4,-2,7,14,7,-11,18
1622149735621775,-2,-2,-4,6,31,-12,-4,-16
1622149735628591,-8,-2,-1,-16,-26,-3,23,-12
1622149735628591,1,-6,-1,15,7,-7,-24,0
1622149735644906,8,6,9,-12,-22,18,13,-17
1622149735644906,4,9,-11,-8,17,-37,-34,14
1622149735645806,-2,-12,-6,-1,-22,37,11,-12
1622149735645806,-3,-5,-8,-9,13,-5,8,10
1622149735658582,2,0,3,22,1,-12,-9,-27
1622149735658582,-5,-7,-3,-13,-42,-1,-4,7
1622149735666817,-3,-10,-4,-8,20,-1,12,17
1622149735666817,6,27,16,13,17,8,-17,-20
1622149735680961,-1,3,-19,-44,-19,17,17,9
1622149735680961,-1,-7,-4,12,7,-5,-17,-5
1622149735687879,-6,-16,-10,5,13,-12,-5,-19
1622149735687879,3,3,9,-5,-12,-5,3,10
1622149735704984,-3,-7,-4,9,-14,1,33,14
1622149735704984,5,-9,-10,-33,-26,14,33,-2
1622149735705957,-5,9,6,10,-9,-21,-70,-4
1622149735705957,-3,-6,-6,-2,0,-14,71,12
1622149735718566,2,-2,2,0,20,11,-25,-9
1622149735718566,-8,9,-4,18,-11,-13,-2,36
1622149735726813,7,4,6,-2,28,4,31,21
1622149735726813,1,-7,10,-1,-27,4,0,8
1622149735741810,4,5,-3,16,11,-11,-23,-8
1622149735741810,-15,-9,-8,-18,10,34,35,10
1622149735748514,0,10,-6,-2,13,-28,-21,-20
1622149735748514,1,-10,-7,6,-6,20,-7,12
1622149735764864,2,3,6,-1,-4,-9,10,12
1622149735764864,1,1,14,18,3,-24,0,-19
1622149735765780,13,11,-6,-16,21,30,-29,-1
1622149735765780,-2,8,6,35,-39,-7,38,3
1622149735778055,-9,-13,-19,-40,-5,-7,-21,-1
1622149735778055,4,8,7,3,7,4,17,-8
1622149735787382,-5,-13,-1,16,-9,-12,12,-9
1622149735787382,0,13,-1,-12,19,-26,-63,2
1622149735800481,5,20,23,16,20,-12,20,15
1622149735800481,-4,-13,4,18,-10,23,-30,-74
1622149735809599,1,9,-3,-14,-25,20,20,42
1622149735809599,-11,-20,-7,-14,13,-16,-35,-31
1622149735824918,5,-1,-3,15,27,-8,2,15
1622149735824918,0,35,-3,-35,-36,4,-20,4
1622149735826474,-5,-9,0,18,-23,-18,0,-35
1622149735826474,2,-2,4,1,17,25,25,6
1622149735838396,-5,-10,-7,-13,-20,6,-3,-6
1622149735838396,5,2,9,43,33,-17,-10,15
1622149735846817,-4,-8,-13,-57,-3,30,31,-10
1622149735846817,4,-3,-4,2,-2,-24,-24,7
1622149735861386,-9,3,2,10,14,-9,26,20
1622149735861386,-2,-1,-3,3,-9,-14,1,-6
1622149735867806,1,6,5,18,-3,-7,-13,-21
1622149735867806,1,-10,3,-7,7,-9,11,6
1622149735884377,4,-6,-10,-20,-1,16,12,12
1622149735884377,-3,0,-3,-1,-2,-14,-42,-9
1622149735887370,-1,-4,17,28,17,-1,1,-30
1622149735887370,-11,-6,-9,-35,-18,22,30,17
1622149735898541,10,-7,9,3,26,4,-45,-21
1622149735898541,-6,27,-7,-10,-40,-13,22,19
1622149735907615,-1,-4,-2,14,25,-13,-4,1
1622149735907615,-4,-2,2,6,-4,39,-11,-19
1622149735920884,2,9,7,-5,-6,-44,-4,15
1622149735920884,-1,-24,-12,-17,7,16,24,23
1622149735929778,1,1,8,23,1,-1,4,6
1622149735929778,5,9,-8,-8,-24,-30,-35,3
1622149735944768,-7,-8,-6,-2,-10,17,25,-9
1622149735944768,3,2,3,19,6,-4,7,6
1622149735945766,-3,-3,3,-6,1,3,-25,7
1622149735945766,-3,-12,12,11,24,46,18,-3
1622149735957732,1,3,-9,-20,-41,-4,4,-16
1622149735957732,11,-14,4,6,3,-3,-11,-7
1622149735966871,-12,8,-7,-25,33,19,-13,-1
1622149735966871,-4,3,-17,30,-13,-33,-11,-4
1622149735980820,2,-14,-3,2,15,24,39,-5
1622149735980820,-2,10,10,-6,-2,16,-27,2
1622149735989779,-2,4,-4,4,-3,18,3,-10
1622149735989779,-6,-1,-4,-23,-2,-44,-2,-13
1622149736004831,2,-7,-3,36,20,-11,-5,12
1622149736004831,-2,-3,-1,-12,-32,8,16,-9
1622149736005825,-4,0,-1,-4,-8,-13,-49,-26
1622149736005825,4,16,-3,1,21,17,7,22
1622149736018574,1,8,7,7,-41,5,3,4
1622149736018574,-4,-12,-2,-43,64,-5,-22,4
1622149736027641,5,-1,-1,29,-68,-4,39,17
1622149736027641,-5,-27,-8,-13,8,-2,8,-5
1622149736040498,-4,36,13,25,29,13,-35,-13
1622149736040498,3,-8,12,-1,15,16,4,5
1622149736049424,-4,-8,-7,-7,-19,-30,-15,34
1622149736049424,2,-15,-5,-1,0,2,17,15
1622149736064912,3,14,-10,-14,-6,3,-10,-24
1622149736064912,-5,1,-5,-4,3,0,3,-3
1622149736065804,0,-4,2,15,13,12,39,2
1622149736065804,2,-3,-5,-15,-27,-22,1,-4
1622149736078613,-9,-13,-1,-14,-15,13,-25,10
1622149736078613,6,11,0,28,22,3,11,-9
1622149736087426,3,3,-5,-24,-1,2,14,-12
1622149736087426,-1,3,3,3,35,3,8,-4
1622149736100439,-1,-11,-1,-5,-42,-20,14,5
1622149736100439,-5,-1,1,-3,-21,-9,-55,-45
1622149736109776,2,-33,-14,2,5,-10,14,42
1622149736109776,-4,12,18,14,19,13,-6,-9
1622149736124909,0,20,12,0,3,6,27,3
1622149736124909,7,-5,-12,-9,-41,-2,14,-12
1622149736126591,-5,-2,3,8,1,-12,17,9
1622149736126591,3,-8,-13,-26,-4,7,-32,-8
1622149736137857,2,-13,7,9,-11,3,33,17
1622149736137857,-2,-4,-8,10,-16,-45,-16,-8
1622149736146858,-7,5,7,-13,3,0,-23,-10
1622149736146858,-2,-7,-17,-24,-5,38,25,11
1622149736161006,2,4,8,-2,45,-9,-33,-7
1622149736161006,1,-5,-5,5,2,-20,-3,7
1622149736169774,2,0,5,11,2,3,23,17
1622149736169774,-1,0,-5,5,-7,-19,-51,-10
1622149736184898,3,-5,11,-14,-20,8,8,-2
1622149736184898,0,-5,2,15,-7,-22,13,33
1622149736186869,-4,8,-7,-8,42,28,-8,-21
1622149736186869,-5,-4,7,5,17,17,52,-6
1622149736197955,-2,-3,-15,-9,-29,-17,-50,0
1622149736197955,-2,2,1,-10,25,22,17,16
1622149736206871,3,-14,6,5,-1,-6,-1,-10
1622149736206871,8,8,-6,12,-10,-12,-18,-13
1622149736220881,-11,20,10,18,27,-7,-29,6
1622149736220881,-2,-9,-5,-23,-27,15,-1,-24
1622149736229909,0,2,-4,-9,11,-9,-3,7
1622149736229909,-6,-12,-14,-5,-30,-6,18,-7
1622149736244336,-3,-18,-10,8,-3,-16,-15,-4
1622149736244336,-1,4,6,-7,1,7,32,5
1622149736246335,-6,-1,-6,-2,-2,-27,-24,-8
1622149736246335,3,-1,5,0,10,-12,11,11
1622149736258325,-1,-8,-17,0,-7,8,28,-1
1622149736258325,-10,14,1,-7,-28,1,-23,2
1622149736267275,9,-5,-6,-4,10,18,58,9
1622149736267275,-10,4,14,9,-29,-69,-51,-22
1622149736280938,1,-7,-11,-16,18,10,2,25
1622149736280938,5,10,-4,-1,-19,-22,-1,6
1622149736289942,-6,10,0,-21,-26,-5,-29,-40
1622149736289942,1,4,-1,0,-8,31,28,19
1622149736305020,3,-20,-1,10,20,5,21,-13
1622149736305020,4,10,0,11,4,9,-50,12
1622149736305998,3,15,-3,-19,-19,35,42,-1
1622149736305998,4,31,17,-7,-5,-7,-59,-14
1622149736317815,-4,-6,-10,-3,32,29,45,0
1622149736317815,-4,-7,9,19,27,8,16,9
1622149736326732,3,-4,-3,-2,-21,-17,-15,4
1622149736326732,1,-14,-7,-2,5,-8,-24,7
1622149736340371,1,3,6,-9,-11,10,3,-10
1622149736340371,-1,-8,-7,2,29,13,0,-6
1622149736349323,0,20,7,14,-2,-21,-22,2
1622149736349323,3,3,12,10,1,7,25,8
1622149736363310,-4,-9,-5,-33,-18,-19,-51,-32
1622149736363310,-1,-14,12,16,19,24,70,29
1622149736370266,4,-3,1,-9,-12,-5,-25,-7
1622149736370266,-1,-27,-12,5,1,-1,3,0
1622149736378620,-1,33,18,22,-4,-15,-8,-12
1622149736378620,0,-7,-5,-19,-1,-4,12,1
1622149736387326,-5,-8,-10,-15,-4,-23,-53,-5
1622149736387326,-4,-17,-4,20,15,47,-10,2
1622149736400432,-1,2,-9,-30,-27,-3,3,0
1622149736400432,2,3,6,38,0,-5,-37,-6
1622149736409778,-2,-3,-5,-1,-12,3,31,1
1622149736409778,-3,1,-1,-27,30,-36,-2,3
1622149736424293,-9,-14,-7,11,10,-10,-12,0
1622149736424293,3,22,-12,-30,-6,6,-17,-11
1622149736430908,-4,-12,15,14,2,-4,29,5
1622149736430908,10,18,2,13,-3,0,-11,-2
1622149736437857,-1,4,-6,-13,-1,1,-15,-10
1622149736437857,-5,-14,-5,-10,-7,2,30,-16
1622149736446940,8,2,-1,19,5,12,-11,13
1622149736446940,-8,19,4,1,17,9,16,0
1622149736461138,9,-3,3,17,-2,-21,4,5
1622149736461138,3,-11,-5,-20,-20,11,0,-6
1622149736469778,-6,4,1,-5,8,-36,-5,1
1622149736469778,-9,-16,3,19,5,26,15,-9
1622149736484375,-1,-2,-8,-13,-10,-25,-13,-1
1622149736484375,5,11,3,-18,-36,19,-23,12
1622149736490360,-4,-2,-7,8,25,13,34,-4
1622149736490360,7,12,6,-4,-18,-4,20,-13
1622149736498542,-9,-20,4,22,8,10,-9,35
1622149736498542,-8,-7,-12,-20,22,7,-32,-35
1622149736506845,-9,-8,-1,1,-37,-24,-39,12
1622149736506845,1,-4,1,-1,15,45,69,7
1622149736520754,0,11,-6,-13,-2,9,-10,-5
1622149736520754,-2,-1,-1,27,19,-5,36,13
1622149736529780,1,-9,-1,-10,0,30,-25,-6
1622149736529780,-3,-15,-11,4,-11,-22,-20,5
1622149736543371,2,9,7,2,-11,-16,9,0
1622149736543371,-2,-17,-3,12,4,-29,5,4
1622149736550400,3,2,2,5,22,23,6,-3
1622149736550400,-2,9,-2,-10,-37,2,-7,-13
1622149736567158,5,6,-7,-13,2,-28,25,16
1622149736567158,-4,4,6,0,-3,-7,-11,2
1622149736568181,-2,-15,2,6,11,7,3,-4
1622149736568181,9,-1,-12,-2,-36,-5,-1,-22
1622149736581083,-5,-18,-2,22,4,27,9,-16
1622149736581083,-5,6,6,-14,-7,-13,-2,30
1622149736590148,-4,1,-7,-14,-14,-3,-8,-9
1622149736590148,6,4,1,-12,29,-4,13,26
1622149736604170,-1,-6,-6,40,3,2,-11,-12
1622149736604170,1,-2,0,-19,-3,-17,-7,-1
1622149736611035,1,5,0,-8,11,21,-1,-7
1622149736611035,-7,-15,-5,-7,26,-8,-10,5
1622149736627473,4,12,9,8,-30,-22,17,-12
1622149736627473,4,-36,-12,-2,17,19,12,5
1622149736629086,-4,50,10,6,16,8,4,5
1622149736629086,-5,-17,4,-1,-26,-23,-42,-1
1622149736641026,-2,-16,-11,-23,10,0,-16,-20
1622149736641026,2,15,-7,3,-11,-3,0,4
1622149736650058,-4,-28,-2,1,-26,20,39,-16
1622149736650058,-2,9,6,-3,5,-44,-6,12
1622149736671852,9,0,4,-8,5,14,1,9
1622149736671852,-9,-12,-11,3,-43,-49,-16,-14
1622149736673766,4,-2,-8,-12,18,15,-6,3
1622149736673766,-5,7,6,5,2,11,21,-7
1622149736686845,-4,-6,0,8,-18,-1,-6,5
1622149736686845,-3,7,5,-4,9,-30,11,-32
1622149736688865,2,-2,0,17,20,-22,-5,14
1622149736688865,-1,1,-7,-33,-30,12,-4,-3
1622149736700870,-11,-4,-6,8,6,10,-11,-8
1622149736700870,7,-4,-7,-24,3,2,24,5
1622149736709774,0,14,12,7,23,14,-18,-19
1622149736709774,8,-5,0,-1,25,-4,-11,8
1622149736724319,-13,7,-2,-13,-40,0,1,-20
1622149736724319,-1,9,3,28,15,18,34,21
1622149736730540,-11,-21,-13,-19,-34,-61,-7,-3
1622149736730540,16,38,4,6,29,25,15,11
1622149736747468,-3,-9,1,2,-8,-5,-17,-8
1622149736747468,-4,8,5,-10,19,1,-13,-7
1622149736748471,-6,-18,-11,0,-30,-15,6,6
1622149736748471,0,0,2,4,2,-9,-13,-1
1622149736760534,-2,12,2,-13,-29,14,29,2
1622149736760534,10,19,13,33,7,-10,-6,-2
1622149736769404,-3,6,-5,-24,-2,-7,-49,-13
1622149736769404,-9,-14,-3,10,5,-9,33,-9
1622149736784058,3,2,-4,3,4,37,2,9
1622149736784058,-4,-11,1,8,4,-26,-23,-7
1622149736791098,9,19,-4,1,-8,1,28,11
1622149736791098,-5,-18,-10,-6,-27,0,-36,-14
1622149736807449,5,18,6,-9,31,-32,21,7
1622149736807449,-4,-11,0,-18,-17,37,20,-4
1622149736809085,-1,-9,-5,8,2,9,16,8
1622149736809085,-8,10,5,0,21,-22,-22,-6
1622149736820917,12,-8,1,-3,-9,5,1,14
1622149736820917,0,-1,-4,14,-2,22,-26,2
1622149736829815,-5,-14,0,-6,0,9,39,14
1622149736829815,0,11,-3,7,-19,-13,-39,-27
1622149736844303,-3,-11,3,-4,34,-7,-33,2
1622149736844303,1,36,11,38,-5,-30,7,-2
1622149736850289,4,-31,-3,-28,-16,24,-20,-8
1622149736850289,-6,-3,-7,2,-19,-10,5,2
1622149736867357,-8,0,-7,-11,5,-15,-15,-8
1622149736867357,3,-5,-9,-18,14,0,1,-4
1622149736868358,7,3,15,15,12,13,-33,-5
1622149736868358,-4,-3,-7,14,-19,20,26,3
1622149736881036,-1,6,2,-13,0,-45,-3,0
1622149736881036,0,-17,-6,-20,14,9,-23,1
1622149736889776,-10,-23,5,41,-43,-10,-11,-11
1622149736889776,10,31,-2,-40,9,21,10,8
1622149736912434,3,-5,-10,19,3,22,14,-9
1622149736912434,-1,-1,11,-8,-20,5,5,44
1622149736913432,0,11,-5,-4,5,-12,15,-37
1622149736913432,-2,-19,3,17,23,8,-4,29
1622149736927383,-2,2,-2,10,-17,-2,10,-4
1622149736927383,4,-5,8,7,7,29,-5,-10
1622149736928386,0,15,-8,-16,-4,11,-7,-15
1622149736928386,2,4,13,27,5,-9,0,3
1622149736940356,-1,-17,-1,-16,9,8,11,3
1622149736940356,0,23,-11,-13,-3,-19,-5,-9
1622149736949329,-3,0,-4,-11,10,-23,-18,14
1622149736949329,-5,7,-8,-7,19,60,9,-9
1622149736964288,4,-15,7,9,-18,-11,-22,-10
1622149736964288,-4,-13,-6,1,-10,-24,12,18
1622149736970272,5,12,2,-1,15,-11,-15,-14
1622149736970272,2,-12,-3,-5,9,-2,44,8
1622149736987310,-10,0,-7,-4,8,8,-10,1
1622149736987310,-10,-11,-5,-12,-5,-5,4,-2
1622149736988309,4,6,1,-6,3,-16,-13,9
1622149736988309,-2,-19,-12,5,-17,19,-4,-7
1622149737000316,3,3,19,13,24,30,7,9
1622149737000316,-2,-2,-9,-29,-24,-23,-2,-16
1622149737009776,1,-4,-1,7,-5,3,8,15
1622149737009776,-8,-8,-1,-1,-19,-14,-15,-1
1622149737023896,4,-5,-6,-8,5,-2,8,-3
1622149737023896,-1,20,6,26,23,29,12,-2
1622149737031170,-7,-19,1,-9,-4,-7,-42,-6
1622149737031170,9,32,5,-3,37,1,19,4
1622149737047528,1,7,-9,-6,-30,-23,-20,4
1622149737047528,-3,-18,1,15,-14,25,16,-13
1622149737048528,13,15,-6,-13,4,12,11,29
1622149737048528,-7,-11,8,6,31,-1,-13,-15
1622149737061031,1,6,2,0,-44,17,-37,-38
1622149737061031,-2,7,-1,-27,13,6,11,-7
1622149737069774,-8,-2,4,19,14,-22,-9,3
1622149737069774,2,-12,-4,-2,-20,-25,-16,22
1622149737083328,1,9,-5,2,19,12,24,2
1622149737083328,-15,-16,-2,2,15,8,22,2
1622149737092304,-10,-3,-5,12,-38,-7,-22,-24
1622149737092304,0,-6,11,-9,-8,-20,18,1
1622149737107470,3,12,-3,-5,2,-10,17,12
1622149737107470,1,8,-13,15,15,-11,-50,-19
1622149737108391,-6,-4,-1,-20,35,0,15,-8
1622149737108391,-6,-12,-7,-4,-4,15,8,-12
1622149737120846,-3,0,13,8,-22,7,31,-28
1622149737120846,7,-6,-7,0,26,-10,-16,23
1622149737129775,2,3,4,31,-6,35,37,10
1622149737129775,3,-14,-7,-6,-24,-32,-49,-11
1622149737144316,-18,-8,16,11,41,-9,14,16
1622149737144316,13,27,-6,-9,-38,8,-26,-10
1622149737150901,-7,-2,8,-5,26,5,8,-5
1622149737150901,7,14,-8,-29,-31,-4,9,12
1622149737166810,5,7,-1,9,9,-4,-1,0
1622149737166810,-14,-17,2,14,13,-6,2,-3
1622149737168804,4,10,-2,-8,-10,-19,-21,14
1622149737168804,0,1,8,24,-7,13,28,-9
1622149737180896,8,-2,-11,-20,1,-37,-8,20
1622149737180896,-8,-16,-1,2,13,35,8,-23
1622149737189813,10,16,-6,16,19,12,41,8
1622149737189813,-12,-5,-3,-15,24,-15,11,6
1622149737204019,4,5,-7,-11,-30,19,-26,-9
1622149737204019,2,-22,1,-7,19,-13,-17,0
1622149737211150,-1,0,13,16,-36,-15,8,0
1622149737211150,-2,-4,-4,-12,-17,-15,-10,-8
1622149737227439,-3,-12,1,5,39,19,31,15
1622149737227439,2,29,-6,9,-41,4,-15,9
1622149737228895,-8,-20,-7,-29,-14,-21,-17,-1
1622149737228895,3,8,-3,2,22,33,27,4
1622149737240886,-1,-8,-4,-7,-47,-54,-34,-7
1622149737240886,-6,-11,-2,-20,-17,1,-11,11
1622149737249938,0,-3,-2,13,8,-22,-31,-36
1622149737249938,-3,-3,11,-16,2,14,19,-6
1622149737262925,4,6,1,18,12,-9,-3,45
1622149737262925,-20,-20,-6,-16,7,-1,12,-8
1622149737272328,9,9,-2,2,-29,-21,-6,5
1622149737272328,0,-9,-5,3,2,-18,-21,-1
1622149737286861,-5,-4,-9,-31,21,6,-11,-15
1622149737286861,10,4,6,12,-17,8,13,6
1622149737288856,-5,0,-1,-4,-7,2,24,9
1622149737288856,1,1,0,16,11,0,0,-3
1622149737300901,3,-2,-4,-23,-25,11,-17,-2
1622149737300901,6,2,8,16,16,-19,18,-9
1622149737309992,-8,-13,-17,-17,25,28,15,4
1622149737309992,5,-6,9,30,-5,1,1,13
1622149737323483,-6,2,-6,3,9,-30,-54,-27
1622149737323483,0,-2,-2,-6,-12,14,27,-8
1622149737331858,5,3,-1,-13,20,-16,0,15
1622149737331858,-7,-11,-4,-1,-18,24,16,1
1622149737346862,-6,-3,-3,1,10,2,-14,1
1622149737346862,1,4,2,-13,-27,-20,14,2
1622149737352848,3,-13,0,2,-1,5,-12,-4
1622149737352848,-10,13,2,-5,-11,4,-50,-16
1622149737361111,1,-6,-1,9,33,13,46,3
1622149737361111,4,6,-2,-23,-29,-14,-20,-7
1622149737370174,-5,3,1,-3,-10,1,0,-5
1622149737370174,8,-6,-5,-9,-8,-4,-17,6
1622149737383326,-6,-10,3,33,7,11,3,10
1622149737383326,-7,-11,-8,-14,24,5,12,-3
1622149737392301,1,1,-2,-6,-20,13,-20,-22
1622149737392301,0,1,4,-4,-41,2,13,23
1622149737406874,-4,-2,-6,-16,26,-3,57,-8
1622149737406874,-1,3,5,12,-3,-14,-37,10
1622149737413625,2,3,0,-18,-5,8,24,4
1622149737413625,4,0,-11,32,41,-3,-43,-30
1622149737421156,-10,10,14,-18,-6,10,-2,8
1622149737421156,0,-17,-7,12,-12,-28,10,-5
1622149737429776,7,-27,8,6,5,26,19,0
1622149737429776,2,39,-2,-26,-10,-24,-5,-4
1622149737443216,0,-16,-3,22,-6,-27,-33,-11
1622149737443216,-1,7,-3,-13,30,53,10,7
1622149737451855,-12,-10,-4,7,-30,-20,-28,12
1622149737451855,2,-21,-9,-1,27,14,17,-32
1622149737466778,-4,13,12,-14,-50,-8,-14,-6
1622149737466778,-12,-12,0,13,-9,-6,10,3
1622149737473636,-1,7,-8,2,-4,-9,-5,-13
1622149737473636,3,0,1,4,-24,5,2,34
1622149737489314,0,0,-10,-29,9,18,0,-8
1622149737489314,1,2,-1,13,13,-24,-13,-7
1622149737491334,3,10,1,-10,-7,-1,6,-2
1622149737491334,-9,0,-1,-1,2,-17,-4,-5
1622149737503318,0,-12,-1,16,3,21,11,-3
1622149737503318,3,4,3,-4,3,1,-6,9
1622149737512619,-2,8,-5,2,-7,-16,-2,-12
1622149737512619,-2,-13,-1,-10,-6,-7,4,18
1622149737526602,2,3,-10,-1,-4,-1,-11,10
1622149737526602,-4,5,17,-6,-8,-25,-6,-13
1622149737533357,2,7,3,23,25,-13,-2,-3
1622149737533357,1,-28,-2,-21,12,-7,-10,-6
1622149737549293,-10,21,1,3,-84,2,33,-21
1622149737549293,5,6,-4,16,19,18,-36,6
1622149737551285,-1,2,4,-17,-9,-36,2,-6
1622149737551285,3,0,0,-18,22,-20,-12,28
1622149737563670,4,-11,-6,7,11,17,35,7
1622149737563670,-1,12,-3,4,-4,3,-32,0
1622149737571847,-10,-4,-1,0,9,15,-10,8
1622149737571847,-3,-10,1,-1,10,32,14,-6
1622149737585870,7,6,-2,-4,-30,-32,-38,3
1622149737585870,0,-2,17,23,-4,14,35,2
1622149737593560,-1,2,-10,-60,23,19,-10,0
1622149737593560,-4,-1,0,0,-36,-26,11,-5
1622149737609866,-1,-10,-2,3,22,14,-6,3
1622149737609866,4,4,-7,-6,-18,-1,11,-1
1622149737610838,5,-6,8,13,17,2,12,-16
1622149737610838,-17,-5,-6,6,-12,5,6,-21
1622149737622798,4,22,1,-13,-15,-5,-5,20
1622149737622798,2,-17,-4,7,11,-10,1,-3
1622149737632333,-2,-9,10,17,0,-6,1,8
1622149737632333,-4,11,-7,-16,-7,22,2,-14
1622149737646327,1,-17,5,18,17,-5,-2,-2
1622149737646327,0,-16,-5,0,18,36,-12,-4
1622149737653310,5,35,-8,-14,-20,-15,26,4
1622149737653310,-1,-4,14,20,4,-4,-8,-6
1622149737669241,0,9,-3,-5,12,2,-11,-7
1622149737669241,0,-9,-1,-25,-13,-4,21,-14
1622149737671234,-3,-13,-4,16,-3,9,-15,6
1622149737671234,-8,-1,-4,1,18,-12,6,25
1622149737682831,3,-3,-5,-2,-2,8,-46,-32
1622149737682831,-7,4,1,5,1,-20,15,-3
1622149737691783,0,1,6,23,33,10,3,0
1622149737691783,8,-6,-15,-44,-55,5,-9,-25
1622149737706762,-8,1,1,0,7,-12,10,24
1622149737706762,-6,-1,-1,6,-4,-4,14,-1
1622149737712724,1,-2,-5,-2,-3,13,-24,4
1622149737712724,2,-1,10,31,19,2,-6,-11
1622149737729812,4,-3,-3,-12,7,-12,1,0
1622149737729812,0,12,-11,-13,-11,-4,16,-4
1622149737730816,0,-1,2,-16,10,-17,4,8
1622149737730816,-3,3,-15,12,9,9,13,-1
1622149737742782,-1,-7,9,2,11,-11,-30,-3
1622149737742782,2,2,0,10,13,8,8,13
1622149737751779,-5,-7,3,-1,-27,15,1,0
1622149737751779,3,6,5,7,4,-59,-18,-3
1622149737766718,-4,-5,-9,-15,9,26,27,1
1622149737766718,-6,-4,3,3,-9,-13,-10,-4
1622149737773427,1,-6,-7,-1,0,-7,-6,4
1622149737773427,3,7,-1,-3,-4,1,2,-6
1622149737789836,-3,-7,0,8,15,24,22,32
1622149737789836,-4,-3,0,0,-30,-21,-45,-48
1622149737790809,-8,-3,-7,21,43,-4,-5,5
1622149737790809,0,3,14,2,-22,-4,5,13
1622149737802850,-1,-4,-17,-44,-9,4,23,-14
1622149737802850,0,-7,1,0,-23,-10,-12,23
1622149737812682,-10,-8,-6,-6,-2,26,8,-35
1622149737812682,7,1,3,13,4,-14,3,25
1622149737826843,5,11,2,2,9,7,-24,0
1622149737826843,-7,-3,-3,-13,-9,-10,12,3
1622149737833358,22,3,-14,-11,1,-2,16,7
1622149737833358,-11,-3,12,-8,-15,2,-8,-11
1622149737849457,-1,-14,4,8,11,-8,15,-4
1622149737849457,8,-2,-2,17,-28,-12,-9,27
1622149737851450,-18,-20,-4,1,-10,-6,-29,-68
1622149737851450,12,51,-5,-24,-29,2,2,9
1622149737863591,-3,-4,-4,15,35,9,23,3
1622149737863591,0,0,5,10,-13,-7,-20,-5
1622149737872587,1,0,4,-1,17,-5,6,11
1622149737872587,-10,-19,-6,0,-30,20,5,6
1622149737885852,-3,-5,0,-9,2,-8,18,-9
1622149737885852,-2,2,-9,3,23,5,-24,9
1622149737892844,0,2,-2,-4,-30,-24,0,27
1622149737892844,-6,-10,9,-1,12,12,14,-13
1622149737909846,8,12,7,19,3,-6,-4,9
1622149737909846,-2,-2,0,-31,0,0,-7,-43
1622149737910849,17,-2,-6,10,-15,9,44,48
1622149737910849,-9,-5,-2,5,47,2,-40,-7
1622149737923085,-6,13,-2,8,-57,-10,-23,-36
1622149737923085,3,-11,-4,-5,30,14,4,6
1622149737931879,4,26,10,-6,15,4,-3,3
1622149737931879,5,-12,-9,9,-12,-21,6,-1
1622149737946907,-4,9,7,-1,3,33,-17,1
1622149737946907,-1,-6,-7,-21,22,-8,4,8
1622149737952896,-7,-7,-3,16,-11,5,-2,0
1622149737952896,5,-2,6,10,22,13,9,10
1622149737969422,-6,-5,1,16,18,-17,-8,3
1622149737969422,-3,6,-8,-15,-33,5,17,-12
1622149737971419,-1,-6,-5,-26,-22,-10,0,10
1622149737971419,4,0,-9,5,18,-2,7,-10
1622149737983285,2,-11,-2,-3,-3,-6,-7,0
1622149737983285,3,9,2,2,11,20,28,0
1622149737992299,-14,-9,-4,19,-17,-21,-26,-3
1622149737992299,-7,8,-4,-3,-11,2,-4,-16
1622149738006224,4,-15,-2,5,2,-16,8,5
1622149738006224,-3,1,7,9,16,8,7,12
1622149738020540,-4,1,-2,-14,-45,-3,6,-42
1622149738020540,10,-7,-3,-9,20,9,-38,27
1622149738029848,-8,0,0,6,-26,-47,12,-28
1622149738029848,11,16,7,3,-2,5,15,34
1622149738030854,-10,-36,1,-17,14,30,-6,-16
1622149738030854,6,51,-3,14,14,-45,-34,-4
1622149738043685,-2,-18,10,-8,-8,16,19,11
1622149738043685,-1,0,-10,-16,8,8,-15,-17
1622149738051863,3,-8,9,11,1,-10,1,10
1622149738051863,-4,-9,-5,12,-13,15,18,-11
1622149738066768,-6,8,-6,-21,-2,-2,0,16
1622149738066768,-4,-9,0,8,22,-6,-20,-4
1622149738073723,1,-11,3,12,16,-31,-12,7
1622149738073723,-11,19,2,-24,-21,32,23,-11
1622149738089312,11,-4,-12,-5,-30,-12,4,3
1622149738089312,-6,-9,6,14,3,6,-6,-32
1622149738091333,2,16,-5,-27,13,-26,2,32
1622149738091333,-4,-23,3,22,-6,-8,-5,6
1622149738103336,3,-6,5,-7,12,23,11,-1
1622149738103336,-4,18,-9,-18,-9,-24,-7,0
1622149738112313,11,7,6,14,-2,6,-34,-29
1622149738112313,-17,-27,-7,-19,4,-3,8,5
1622149738126837,-1,13,0,11,8,3,26,8
1622149738126837,-7,-22,-2,-2,-5,-15,-13,-12
1622149738133337,2,-5,-10,-4,3,7,-5,17
1622149738133337,4,15,11,1,-9,-11,-1,-7
1622149738149294,-3,3,-3,4,8,3,7,-11
1622149738149294,-10,-11,1,-1,27,-6,-4,6
1622149738151287,13,10,-5,14,-37,29,24,14
1622149738151287,1,-18,-4,-6,12,-61,-11,-8
1622149738163255,-1,-3,-1,-9,-43,8,-33,1
1622149738163255,7,11,-1,27,28,2,21,11
1622149738172281,-8,-3,9,-27,0,22,58,-22
1622149738172281,6,1,2,7,3,-34,-34,20
1622149738185889,-3,5,-8,-13,18,-9,5,-7
1622149738185889,-6,5,0,4,-6,11,21,7
1622149738193692,-5,1,1,0,-6,0,-45,-12
1622149738193692,-2,-11,-5,-2,-14,21,28,-5
1622149738209870,-7,-3,6,-3,14,5,-9,-9
1622149738209870,6,4,2,17,2,11,14,21
1622149738210920,3,5,2,0,13,-14,1,1
1622149738210920,-1,-21,-17,-23,-15,15,-18,-8
1622149738223662,-5,1,2,17,0,-14,2,-8
1622149738223662,6,16,3,-6,26,18,-4,0
1622149738232328,-7,-3,-5,1,-22,-3,11,0
1622149738232328,-2,6,14,7,-7,-12,-19,-18
1622149738246884,9,-6,-7,-4,19,5,-3,21
1622149738246884,-17,-6,-10,-13,-30,14,-15,-14
1622149738253352,0,1,8,18,24,3,15,5
1622149738253352,-3,-12,-15,-18,-22,15,-6,15
1622149738269280,-6,-12,5,12,-6,-14,-8,-4
1622149738269280,11,6,-9,-23,-17,-21,-4,-16
1622149738275862,-3,-10,-6,-25,1,10,-21,29
1622149738275862,3,23,6,32,14,13,24,-9
1622149738282851,0,2,-5,-5,3,5,-4,-3
1622149738282851,-3,-14,5,2,-9,-15,11,8
1622149738299855,0,-21,0,8,-18,2,-5,-11
1622149738299855,14,43,6,-7,32,3,4,-2
1622149738306904,-17,-13,-3,-10,-31,-18,-16,18
1622149738306904,11,23,3,5,14,18,20,-12
1622149738313663,-4,-9,-3,4,26,-29,-15,-1
1622149738313663,-7,-13,-2,11,-74,-3,1,5
1622149738329309,3,3,-9,-30,11,7,20,-1
1622149738329309,-7,-11,0,4,-4,12,-8,-26
1622149738335776,-3,-3,-2,4,31,-38,-50,-17
1622149738335776,1,-1,0,-7,0,23,27,3
1622149738342754,5,18,-4,4,13,-1,-19,-15
1622149738342754,-6,-15,-5,-4,-28,-1,28,27
1622149738351726,4,8,8,3,6,4,-43,2
1622149738351726,-4,-16,-2,4,34,43,33,-13
1622149738366740,-6,-15,-6,-16,-25,0,-9,4
1622149738366740,9,25,10,2,11,-11,-9,13
1622149738373358,0,4,-5,8,-20,8,20,-7
1622149738373358,-5,-18,-4,-32,-7,-4,-20,-4
1622149738388781,1,3,7,7,-6,-3,-4,3
1622149738388781,-4,-10,-6,-23,-17,-12,-9,-34
1622149738395785,2,5,4,25,30,37,21,38
1622149738395785,-10,-6,7,28,-16,-27,-30,-36
1622149738402769,7,-3,-7,-26,-1,14,-33,-4
1622149738402769,1,0,-10,-21,8,-13,7,-5
1622149738411741,-1,-3,0,-7,-9,9,10,7
1622149738411741,4,-3,3,11,10,5,18,15
1622149738426838,2,15,-1,-1,-7,1,-9,-2
1622149738426838,-2,-9,1,12,39,5,-7,42
1622149738432831,-2,1,-7,15,-29,14,13,-16
1622149738432831,0,-13,-11,-43,4,-47,5,10
1622149738448788,-1,-18,12,28,8,36,10,-3
1622149738448788,5,20,2,10,-10,-3,-8,1
1622149738455768,-4,15,4,-7,20,-8,20,-8
1622149738455768,-2,-8,-27,-45,-24,-8,-15,5
1622149738472467,-3,-1,19,26,18,-26,-36,-26
1622149738472467,1,-18,-3,-7,3,16,63,63
1622149738473467,-6,10,-10,-2,9,8,-18,-31
1622149738473467,-3,1,7,12,-17,-7,-36,-2
1622149738486867,5,17,-10,-6,3,7,-6,4
1622149738486867,6,-19,1,16,-21,-5,-24,-7
1622149738492879,-12,-2,6,-11,34,-19,2,12
1622149738492879,1,-1,-1,9,-16,4,43,-3
1622149738509356,6,12,-3,10,7,-12,8,-5
1622149738509356,-4,-15,-3,-17,-30,4,-23,-33
1622149738515782,4,10,-3,-39,-14,8,11,29
1622149738515782,-4,11,7,40,33,18,-15,-5
1622149738531948,-7,-13,-8,-19,-12,-15,10,4
1622149738531948,-3,-3,6,29,33,9,-3,-24
1622149738533943,1,-18,-7,-6,-13,-10,0,44
1622149738533943,4,11,5,3,3,48,54,7
1622149738546896,2,-1,-7,-18,-9,-42,-12,2
1622149738546896,-5,-10,-9,4,-28,-47,-36,-1
1622149738552906,-4,1,4,8,-13,10,29,-6
1622149738552906,-3,-16,-4,-1,18,-10,-12,2
1622149738569281,-9,21,0,19,10,41,-9,-2
1622149738569281,2,2,6,-17,18,-9,-35,-7
1622149738575865,4,5,-2,-25,-24,-28,11,-15
1622149738575865,-1,0,5,7,-21,-38,24,-1
1622149738592378,1,-11,0,12,16,-1,2,0
1622149738592378,0,2,-1,1,-9,11,-23,0
1622149738593353,-2,1,-1,1,-1,1,4,-15
1622149738593353,0,-3,-4,-5,10,4,-11,2
1622149738615037,-3,-9,-1,-4,-19,-24,8,-2
1622149738615037,-2,-1,-2,1,8,2,-3,2
1622149738616560,-4,5,0,-1,-18,37,-7,-16
1622149738616560,18,4,4,-17,21,-12,-14,5
1622149738629340,-10,-10,-1,-3,-32,-7,-18,-2
1622149738629340,-5,6,3,4,-8,16,20,-6
1622149738635790,-11,-6,-7,2,-12,-14,-12,-29
1622149738635790,2,2,3,8,6,11,18,39
1622149738651797,0,-11,-11,-35,6,-2,-8,-24
1622149738651797,8,8,9,13,0,-12,14,-3
1622149738653766,0,24,-2,13,-24,-3,26,6
1622149738653766,-2,-6,-4,-13,5,21,-63,-2
1622149738665732,-1,-8,1,8,-22,-13,54,17
1622149738665732,-7,19,-10,-19,-18,10,19,-5
1622149738674392,2,-10,4,19,43,-21,-11,-5
1622149738674392,-7,1,-6,3,-27,15,0,-28
1622149738689307,3,-6,5,5,39,11,-2,19
1622149738689307,-8,-7,0,-1,-21,-12,-29,-18
1622149738696219,7,16,9,5,15,2,37,33
1622149738696219,-1,-24,-11,-3,15,22,10,-45
1622149738712465,2,26,-2,1,-9,-8,-27,-38
1622149738712465,0,-9,2,11,2,25,-9,35
1622149738713465,10,-8,3,-10,-2,-18,-16,-4
1622149738713465,-11,-2,-2,8,9,1,-23,0
1622149738726134,-5,-9,-17,-14,-7,-12,28,10
1622149738726134,-7,-9,0,18,-9,16,-7,-16
1622149738734338,2,0,3,-15,-13,-28,-9,0
1622149738734338,5,-3,-1,-4,-5,-10,-6,10
1622149738749298,-12,-2,4,5,13,34,-1,-5
1622149738749298,0,1,-13,-3,-3,-51,20,-6
1622149738755280,5,-11,-10,-7,8,4,3,8
1622149738755280,-14,-2,-1,-10,-9,-5,-25,-8
1622149738772233,10,-2,3,8,0,-1,-2,-26
1622149738772233,-4,-8,2,2,-2,-26,6,6
1622149738773314,-4,-13,-5,2,8,23,-8,-9
1622149738773314,1,22,6,-7,9,-6,-22,-28
1622149738785494,6,0,-7,7,-5,3,8,43
1622149738785494,0,-1,9,-1,2,6,25,10
1622149738794896,-3,-13,-8,-6,8,-18,-49,-6
1622149738794896,-11,-2,-5,9,-7,-7,35,-3
1622149738809369,5,-9,11,20,-4,20,-15,-12
1622149738809369,0,10,-5,-17,20,10,23,29
1622149738815551,-5,-1,-7,-25,-40,-36,-3,1
1622149738815551,5,-7,-2,16,5,-9,-3,1
1622149738832326,-9,-3,-4,-16,17,-14,5,-6
1622149738832326,-1,-3,5,42,38,26,5,2
1622149738833362,0,15,-5,-2,-18,-51,-47,-41
1622149738833362,-2,0,5,-24,9,39,21,17
1622149738846208,8,9,2,10,-5,13,11,10
1622149738846208,-4,-10,7,-12,-9,3,-16,-18
1622149738855199,-1,2,-3,3,7,21,16,4
1622149738855199,-4,0,-1,26,10,-22,16,22
1622149738869224,-2,1,5,-28,-27,-1,-48,-11
1622149738869224,5,7,1,5,-10,-5,-15,-7
1622149738876224,0,-6,5,7,-12,38,0,-1
1622149738876224,0,0,-8,-13,-9,-10,7,-20
1622149738892550,-3,-5,12,6,25,13,36,43
1622149738892550,0,-2,-9,-9,-30,-40,-24,-11
1622149738893549,7,-5,2,5,15,22,-7,24
1622149738893549,-3,2,-7,-11,-6,-9,-13,-28
1622149738905534,-12,0,1,8,15,9,-4,-9
1622149738905534,19,0,-2,-9,-8,-36,6,4
1622149738914446,-8,-9,-5,16,12,73,48,14
1622149738914446,7,11,5,-17,0,-31,-54,-3
1622149738929388,5,-12,-4,19,10,-1,21,-2
1622149738929388,-15,10,0,19,-14,5,-18,-13
1622149738935346,5,20,4,-12,12,8,41,1
1622149738935346,0,-8,-7,3,-8,-40,-3,13
1622149738951868,-5,-7,-12,-17,8,53,-20,1
1622149738951868,3,-1,-1,-14,10,6,-18,1
1622149738953838,-4,-8,0,15,-20,1,36,19
1622149738953838,-4,3,6,-12,1,-14,-2,-23
1622149738965912,0,-6,-3,-7,0,-19,17,-7
1622149738965912,6,1,-15,-18,8,2,-1,6
1622149738974416,-7,8,31,34,-18,18,-34,-18
1622149738974416,0,-9,3,4,14,5,1,18
1622149738988843,-4,-13,-14,-27,-12,-25,13,6
1622149738988843,1,25,-3,0,-11,27,-2,-15
1622149738995895,4,-9,-14,-15,9,-19,-14,-8
1622149738995895,6,-14,4,30,-5,-36,22,20
1622149739011981,-4,24,11,10,-1,8,11,-17
1622149739011981,-8,-10,-3,-16,8,11,-6,15
1622149739014217,2,3,-3,-5,44,-25,19,-2
1622149739014217,-3,-4,-16,-13,-60,9,-23,3
1622149739026187,2,-4,8,10,6,5,10,13
1622149739026187,-5,-13,11,-7,1,-6,0,3
1622149739034352,6,16,-8,-16,10,-9,-26,-13
1622149739034352,-1,-3,-9,-6,-16,10,2,4
1622149739048487,-2,-11,12,13,22,-4,12,6
1622149739048487,4,13,-1,-1,-19,-18,24,3
1622149739055498,-7,-8,-4,2,-6,1,-22,5
1622149739055498,10,13,4,-4,1,17,12,-1
1622149739072555,2,1,-9,-8,4,-27,-8,-8
1622149739072555,-7,-18,1,7,-3,-13,9,-16
1622149739073555,-9,-7,-5,9,-18,4,-11,-5
1622149739073555,-7,-12,-9,-14,-10,21,37,-2
1622149739085325,11,44,7,9,-14,-64,-54,27
1622149739085325,3,-15,1,-20,20,45,9,12
1622149739094420,1,-5,-6,1,-12,-39,-3,-3
1622149739094420,-13,-19,1,17,10,25,-21,-30
1622149739109360,12,35,-5,-13,-18,-8,-9,3
1622149739109360,-8,-17,-3,-7,6,11,8,-2
1622149739115433,-1,27,-2,6,2,16,9,-12
1622149739115433,6,3,10,1,4,8,7,11
1622149739132328,-4,-26,-5,-1,-25,-1,-10,-14
1622149739132328,-1,11,-2,5,-24,-6,-36,-22
1622149739134351,8,-13,-5,-21,5,6,75,9
1622149739134351,-2,3,6,7,27,6,-12,2
1622149739146198,-7,-11,-10,5,18,7,9,-9
1622149739146198,1,-5,8,0,2,-3,-6,0
1622149739155191,-9,-2,1,-1,-10,-7,-14,-8
1622149739155191,16,2,2,-13,18,-44,-13,-18
1622149739168923,-16,-5,-3,8,-13,40,-19,-17
1622149739168923,7,35,-2,15,11,2,12,13
1622149739176216,-2,2,4,-6,5,-8,-43,8
1622149739176216,0,4,3,-18,-16,-25,34,8
1622149739191910,-1,-30,-12,-4,-9,-2,0,-8
1622149739191910,2,-11,13,19,37,-15,1,-5
1622149739198437,1,2,-1,-22,-54,-24,-5,29
1622149739198437,-8,-4,-3,19,7,51,-23,1
1622149739206244,1,-4,-12,-11,23,9,-23,-4
1622149739206244,0,5,-8,-5,-12,-9,73,30
1622149739214928,-3,-16,1,2,8,6,-34,-29
1622149739214928,-3,6,1,-9,-4,-11,3,12
1622149739229372,0,1,2,35,5,-22,19,12
1622149739229372,5,-3,-7,-9,-13,6,-25,-6
1622149739235789,-1,-14,-2,-1,-14,9,-10,-22
1622149739235789,-4,-9,-8,-1,-6,-9,23,14
1622149739251875,-11,-2,5,2,5,2,6,-9
1622149739251875,4,26,-5,-11,-28,-13,-9,-4
1622149739257860,2,-4,9,11,12,-12,-4,-12
1622149739257860,-9,10,3,-3,9,35,4,3
1622149739265814,5,-28,2,-15,-34,-11,10,26
1622149739265814,-8,16,-7,2,-4,-4,-49,-12
1622149739274455,-4,-7,-3,4,2,-5,-26,0
1622149739274455,2,8,-8,-11,-5,3,18,13
1622149739288823,-3,-10,2,-1,-3,10,8,-43
1622149739288823,-4,-22,-23,-7,20,21,15,-3
1622149739296244,5,15,18,9,25,0,-11,4
1622149739296244,1,-3,-5,4,18,-4,5,6
1622149739311884,-3,11,6,15,-22,-26,17,5
1622149739311884,-5,-23,0,-33,-19,25,-12,-1
1622149739318687,-2,18,-6,24,8,33,-9,-43
1622149739318687,-3,3,-1,-13,36,-21,0,24
1622149739325611,8,8,-10,-5,-27,-20,16,1
1622149739325611,-3,-6,7,14,4,-4,24,7
1622149739334856,2,-27,-9,-3,3,51,-10,7
1622149739334856,3,28,20,-1,-7,-21,-33,-12
1622149739348819,9,14,-10,-23,-12,8,-4,45
1622149739348819,-13,-28,0,6,9,7,23,-24
1622149739355798,5,14,0,-7,11,-20,-2,2
1622149739355798,4,-12,-5,17,-26,-1,33,-1
1622149739371684,-8,3,6,-1,-1,0,-18,-10
1622149739371684,11,-2,9,-3,-17,-12,-13,-8
1622149739378712,-5,-12,-13,-14,-4,-21,14,18
1622149739378712,-4,2,9,24,31,-7,-15,-11
1622149739394763,4,-11,3,-19,-42,-3,-2,-14
1622149739394763,-5,21,-7,21,11,-4,-1,14
1622149739395765,1,-1,-3,-17,3,8,13,-6
1622149739395765,4,-4,15,9,-12,27,15,44
1622149739408769,-1,2,-5,2,33,-44,-30,-15
1622149739408769,-2,-5,3,-10,-4,2,40,5
1622149739415710,-7,-1,-4,3,9,-23,13,17
1622149739415710,-3,-6,-10,2,0,8,-11,-32
1622149739431839,4,-4,1,6,26,0,-13,13
1622149739431839,2,-11,-12,-14,-15,-1,-23,-26
1622149739437849,0,15,8,6,7,-8,20,18
1622149739437849,-3,-17,-10,4,5,-5,-50,-10
1622149739455046,-2,3,-2,-18,14,-31,40,3
1622149739455046,-9,-10,-2,5,-37,27,-7,-47
1622149739456045,-1,-8,2,-7,5,9,-16,-5
1622149739456045,10,8,-1,25,-5,-26,-18,-5
1622149739469084,-1,-12,-7,-18,1,40,-40,6
1622149739469084,-5,19,7,-6,9,-12,17,-26
1622149739476219,-3,10,1,7,-35,-13,7,14
1622149739476219,-3,-6,-8,-18,-7,2,-2,-7
1622149739491913,0,3,1,14,23,20,21,-8
1622149739491913,7,-9,-5,-1,5,-29,-35,25
1622149739498000,-2,-3,-10,-12,-18,0,-4,-3
1622149739498000,3,7,5,2,8,3,5,-3
1622149739514430,-7,0,3,9,0,11,19,-4
1622149739514430,0,-2,-12,-12,3,-2,-7,14
1622149739516425,2,-1,10,15,9,-1,0,-7
1622149739516425,-6,-10,-13,-23,-13,1,16,-3
1622149739528901,2,4,3,11,19,7,-3,-6
1622149739528901,0,3,5,5,-17,-1,-7,14
1622149739535330,1,-9,-11,-2,2,-10,7,-4
1622149739535330,-4,-5,-3,-7,27,30,1,-3
1622149739551316,-1,7,0,-4,-19,7,-2,-2
1622149739551316,0,-3,-3,5,19,-5,-4,6
1622149739558268,-5,-5,-1,-9,4,-5,3,-2
1622149739558268,2,4,4,2,-7,-9,-5,2
1622149739574282,-1,1,-4,-3,-5,-13,-4,-3
1622149739574282,0,-4,-1,2,0,-6,2,5
1622149739576809,-1,-7,-4,1,9,-4,-3,-7
1622149739576809,0,4,2,-3,-31,-9,-3,-1
1622149739589221,0,1,-3,0,3,10,3,-2
1622149739589221,-1,-2,-1,0,11,-7,0,6
1622149739596267,0,1,4,6,-15,12,-7,0
1622149739596267,-1,-5,-5,-7,5,-6,6,-2
1622149739611849,-1,-2,-1,1,-4,1,1,-1
1622149739611849,0,-1,-2,-5,-1,-7,-4,1
1622149739618766,1,1,-5,1,1,-3,-2,1
1622149739618766,2,3,10,1,6,0,5,-1
1622149739634850,2,5,4,2,-5,-4,2,-4
1622149739634850,0,0,2,-1,-13,5,-5,3
1622149739635850,-2,-2,-9,-10,-17,-6,3,-2
1622149739635850,-1,-4,-5,-4,-10,-8,-9,-1
1622149739649961,-2,-1,-2,-4,3,-2,2,0
1622149739649961,-1,0,3,2,9,-2,-9,-23
1622149739655944,0,-3,4,2,-13,-4,4,-2
1622149739655944,0,1,-7,-8,-8,-4,-1,2
1622149739671862,0,-1,-3,3,12,3,-5,-2
1622149739671862,-2,-2,0,-2,2,-8,5,10
1622149739678744,-1,-1,2,0,-1,0,-1,-2
1622149739678744,-3,0,3,11,-2,1,1,-7
1622149739695085,-2,-3,-3,0,10,0,0,8
1622149739695085,2,1,-1,-7,-23,5,3,2
1622149739695886,0,1,-3,-11,-10,-11,-11,-28
1622149739695886,0,-1,-2,-1,1,-3,10,23
1622149739708750,-3,-2,4,4,2,2,-1,-17
1622149739708750,2,2,0,4,9,10,-3,6
1622149739717339,2,-1,0,1,1,-2,9,-8
1622149739717339,-4,1,-4,-6,-3,-1,-10,-37
1622149739730962,2,3,3,-4,-9,0,0,12
1622149739730962,0,-5,-2,1,6,-4,-1,0
1622149739737879,-5,-1,-1,2,5,2,-24,-13
1622149739737879,1,-4,-5,-4,-9,6,40,10
1622149739754865,-3,2,0,0,0,-1,-20,-33
1622149739754865,-1,-1,-1,-1,0,-6,-5,16
1622149739755941,1,0,-1,0,-6,-3,7,12
1622149739755941,-1,0,3,-1,-1,2,-14,2
1622149739768797,-5,-5,-4,7,10,2,-8,-19
1622149739768797,2,2,1,-3,-5,3,17,9
1622149739776890,-1,-1,-1,-8,-1,1,-13,10
1622149739776890,-3,-2,1,-4,-8,-2,15,-6
1622149739791820,1,-2,-3,-2,-5,1,5,3
1622149739791820,-1,1,0,10,8,-1,-7,-4
1622149739797980,-2,-2,1,-9,-5,0,9,17
1622149739797980,0,-1,-3,-8,-7,-3,-13,-4
1622149739814963,0,0,1,5,4,5,6,9
1622149739814963,-3,-5,-4,-4,1,8,-1,0
1622149739815934,2,2,-1,-4,0,-1,6,0
1622149739815934,-2,1,0,13,15,-1,-8,-4
1622149739828757,-1,-4,-1,-2,-12,4,1,7
1622149739828757,-3,-1,0,1,3,7,-2,-4
1622149739836845,0,-2,-5,-9,-10,3,2,-1
1622149739836845,2,1,-2,4,6,3,-5,3
1622149739851773,3,-3,-3,-8,-10,-9,2,10
1622149739851773,0,0,1,-1,-5,-9,-2,-4
1622149739858772,0,-1,3,4,5,-3,2,0
1622149739858772,-2,-2,-3,0,0,-4,-6,0
1622149739875071,0,0,-1,-3,-4,-4,3,2
1622149739875071,-1,-1,-3,-7,-4,-9,-1,-2
1622149739875854,-3,0,0,10,6,-3,1,2
1622149739875854,-1,-1,-3,-4,2,-5,-4,0
1622149739887842,0,-2,1,-1,-6,-8,1,0
1622149739887842,0,1,2,-2,1,-5,-3,-2
1622149739896924,-1,1,1,6,5,-1,0,2
1622149739896924,2,-1,-3,-1,-6,-6,-3,-1
1622149739911921,-1,-3,-4,-5,-5,-2,0,2
1622149739911921,-4,-2,0,1,1,0,-1,-2
1622149739918096,-3,-4,-2,0,1,-3,-1,-1
1622149739918096,-2,-1,0,-2,-7,-3,-1,-1
1622149739934123,0,2,-1,-3,-4,-1,0,1
1622149739934123,-1,-2,-2,0,1,-2,0,1
1622149739936091,0,0,0,2,4,-4,1,-2
1622149739936091,-2,-2,-1,-2,-3,-2,-4,0
1622149739948165,-1,0,0,-1,0,1,1,0
1622149739948165,0,2,-1,-1,1,-3,-1,-3
1622149739957005,1,0,-2,0,1,0,0,1
1622149739957005,1,1,1,-3,-2,1,0,-1
1622149739971379,-2,-1,-2,0,0,-1,-3,0
1622149739971379,0,-1,-2,0,-2,0,1,1
1622149739978634,-3,-2,-3,-1,0,0,0,-1
1622149739978634,-3,1,1,-2,-2,-1,-2,-1
1622149739994622,-1,2,-2,0,-1,1,0,0
1622149739994622,0,-1,0,-2,0,0,-2,-1
1622149739996601,0,-1,-1,-1,-1,2,0,2
1622149739996601,-1,-2,-1,-1,-1,1,-1,1
1622149740008805,-3,0,0,-2,-2,-2,-1,-2
1622149740008805,0,-2,-2,-1,-1,0,-2,-1
1622149740016856,-2,-4,-1,0,3,-4,-2,0
1622149740016856,-1,0,-2,-1,-1,-1,0,-3
1622149740031608,1,-1,-1,-1,-2,-1,-1,0
1622149740031608,-1,-1,-2,0,-1,1,1,-1
1622149740038729,-1,1,0,1,-1,-1,-1,-2
1622149740038729,-1,-3,0,0,-1,-2,-2,-2
1622149740055089,-1,0,0,0,0,0,0,-1
1622149740055089,-3,-1,-2,-1,0,-4,0,-2
1622149740055843,0,-1,-2,-1,-1,-1,-1,-2
1622149740055843,0,0,0,-3,-2,-2,0,2
1622149740068732,0,0,-1,-2,-1,-2,-1,0
1622149740068732,-1,0,-1,-1,-3,-1,-3,-1
1622149740076950,-1,-1,0,-1,-1,-1,-1,-1
1622149740076950,-2,-1,-2,-1,-1,-1,-2,-1
1622149740091397,-1,-1,-2,-2,-2,1,0,1
1622149740091397,-2,-2,-1,-3,-3,1,-1,-1
1622149740098344,0,-1,-1,0,-2,2,0,-1
1622149740098344,1,-2,-1,-2,-3,0,-2,1
1622149740114862,-1,0,-1,-2,-2,-1,0,1
1622149740114862,1,0,0,0,2,0,-2,-1
1622149740115860,-1,0,-1,-1,0,1,0,-2
1622149740115860,-2,-2,-2,-2,0,-1,-1,-3
1622149740128075,-1,-1,-1,-2,-3,0,0,0
1622149740128075,-2,-2,0,0,-2,0,-2,-1
1622149740137051,0,-1,-2,-1,0,-2,-2,-2
1622149740137051,0,0,-1,-1,-2,-1,0,0
1622149740151574,-1,-3,-1,-1,1,0,-1,-1
1622149740151574,0,-1,0,-1,-1,-1,0,-1
1622149740158726,0,1,-1,-2,-1,-1,-1,0
1622149740158726,0,0,-2,0,-1,-1,0,-2
1622149740174481,0,-1,-1,-1,-2,-3,-2,-1
1622149740174481,0,1,-2,1,0,-1,0,-1
1622149740181005,-2,-1,-1,1,1,-2,-1,-1
1622149740181005,-2,-3,0,-1,0,0,-1,1
1622149740188805,-1,-1,0,0,0,-1,-2,-2
1622149740188805,-1,-2,0,-1,-1,1,-1,-1
1622149740196970,0,-1,-1,-1,-2,0,0,0
1622149740196970,0,-1,0,-1,-1,-2,-1,-1
1622149740211914,-1,-1,-1,0,0,-1,-1,0
1622149740211914,-1,-2,-2,-1,0,-2,-1,-1
1622149740218774,-1,-2,-1,-1,0,0,-1,0
1622149740218774,-1,0,-1,-1,-1,-1,-4,-2
1622149740233811,0,-1,0,1,-1,1,-1,-2
1622149740233811,-1,0,-2,-1,0,-1,0,-1
1622149740240821,-2,-2,1,-2,-1,-1,-1,0
1622149740240821,-1,-3,-2,-2,-1,0,-1,-2
1622149740248770,0,-1,0,0,-3,0,0,0
1622149740248770,0,0,-2,-2,-1,-1,-1,-1
1622149740257746,-2,-2,-2,-1,-2,-1,-1,0
1622149740257746,-1,0,-4,-2,-1,1,-1,0
1622149740279815,-1,-1,-1,-1,-1,0,1,-2
1622149740279815,-1,-1,-2,-2,-1,-2,-1,-2
1622149740280912,-1,-1,0,-1,-1,-1,0,0
1622149740280912,0,-1,-2,0,0,-1,-1,0
1622149740294503,-2,-1,0,-1,0,-1,-1,0
1622149740294503,-1,0,0,-1,-2,-2,-1,1
1622149740300839,-2,-1,-2,-1,-1,1,-2,0
1622149740300839,-2,0,-1,-2,0,0,-1,0
1622149740308015,0,0,-2,-1,-2,0,-1,0
1622149740308015,1,-3,-1,0,-3,0,-1,1
1622149740317763,0,-1,-1,0,-3,1,0,-1
1622149740317763,0,0,-1,0,-1,-1,-1,-1
1622149740331528,-1,-1,-2,-1,-1,-1,-1,-1
1622149740331528,-2,0,-1,-2,-1,1,-2,-3
1622149740338254,0,-2,0,0,-1,-1,-2,-2
1622149740338254,-2,-1,-1,-2,0,-1,-1,-2
1622149740354260,0,-2,0,0,-3,-2,0,0
1622149740354260,0,-1,-1,0,0,-2,0,-1
1622149740361258,-1,0,0,-1,0,0,-1,-2
1622149740361258,0,-2,-1,-1,-2,0,-1,-1
1622149740377631,-2,-1,-2,-1,0,-1,0,-1
1622149740377631,0,0,-3,0,0,-1,0,0
1622149740378641,0,-2,-2,0,-2,-2,0,-2
1622149740378641,-2,0,-1,-3,-3,0,-1,-2
1622149740391339,-1,-2,0,-1,1,-1,-2,-1
1622149740391339,-1,-1,0,-2,-1,-2,0,-1
1622149740398278,-2,-1,-1,-1,-1,-1,-2,1
1622149740398278,-1,-1,-2,2,-1,1,-1,0
1622149740414412,-1,-1,0,0,-2,1,-2,-1
1622149740414412,-2,-1,1,-1,0,1,-2,-2
1622149740420444,0,-1,-1,1,0,-2,0,-1
1622149740420444,0,-1,-2,0,0,-1,0,-1
1622149740436855,-2,0,-2,-2,0,-3,0,-2
1622149740436855,0,0,-2,0,-1,0,0,0
1622149740438823,0,-1,0,-1,-1,-1,-1,-2
1622149740438823,0,-1,0,-1,-2,-2,-1,-1
1622149740451243,-1,1,0,-1,-2,0,0,-1
1622149740451243,-1,-1,-1,-2,-1,-3,0,0
1622149740458228,-1,-2,0,-1,-1,-2,-1,-2
1622149740458228,-2,-1,0,-1,-1,-3,0,0
1622149740474443,-1,0,-1,-1,-2,0,-2,-1
1622149740474443,-2,0,0,-1,-1,-1,-1,-1
1622149740480676,1,1,0,0,-1,-1,-2,0
1622149740480676,-1,-2,1,1,0,-2,-1,-2
1622149740497643,1,-1,0,-1,-1,-1,-3,-2
1622149740497643,-1,-1,0,-1,-1,1,1,0
1622149740498642,0,0,-3,-2,-1,-1,1,-2
1622149740498642,-1,0,-1,-1,-2,-1,1,-1
1622149740511937,-1,-2,-3,-1,-1,-2,0,-1
1622149740511937,-1,-2,-1,-1,0,-2,-1,-1
1622149740518734,-2,-2,1,-1,0,-2,-1,0
1622149740518734,0,-2,-2,-1,-1,0,0,0
1622149740534354,0,0,-2,0,-1,-3,-2,-1
1622149740534354,-1,0,-2,-3,-1,-1,-2,-1
1622149740541280,-2,-1,-1,-1,-3,-1,-2,0
1622149740541280,-2,-1,0,-1,-2,-1,-1,-1
1622149740557400,-3,-1,0,-1,-1,0,0,0
1622149740557400,-1,-1,-2,1,-1,0,-2,-1
1622149740558407,-1,-1,-3,1,-1,1,-2,0
1622149740558407,-1,0,0,-2,-1,-2,-2,1
1622149740571953,-1,-1,0,-3,-2,0,0,0
1622149740571953,-2,-1,1,-2,-1,-2,-3,-1
1622149740578789,0,1,0,-2,-1,1,1,-2
1622149740578789,0,-1,-2,-1,0,-2,0,-1
1622149740594524,-1,0,0,0,0,-1,-1,-1
1622149740594524,-1,-3,0,-1,0,-1,0,-1
1622149740600994,-2,-1,-2,-1,1,-3,-2,-1
1622149740600994,-1,-2,-2,0,-1,-1,-2,-1
1622149740617591,-1,-1,-1,1,-1,0,-1,0
1622149740617591,-1,-1,-2,-2,0,0,1,-2
1622149740618592,-1,-2,0,-1,-2,0,-1,0
1622149740618592,-1,-1,0,0,2,-1,0,-1
1622149740631869,0,0,0,-2,1,-1,-1,-1
1622149740631869,-2,1,0,0,0,-2,0,-1
1622149740637862,-1,-1,-1,-1,-2,-2,0,-2
1622149740637862,-2,-2,-3,-2,-1,-2,-1,-3
1622149740654441,0,-2,-3,-2,-1,0,1,1
1622149740654441,2,1,-1,0,0,0,-1,0
1622149740661301,-1,-1,-1,1,-3,-3,-2,0
1622149740661301,0,-3,0,-3,-2,0,-1,1
1622149740678114,-1,-1,-1,0,-1,-2,-2,0
1622149740678114,-2,-1,-2,-1,-1,-2,-2,-3
1622149740679114,-1,-1,0,0,-1,-2,-1,0
1622149740679114,0,0,-1,0,-1,0,-1,-1
1622149740691945,-1,0,-1,-1,0,0,-2,-1
1622149740691945,0,0,0,-3,-1,-1,0,-1
1622149740698002,-1,-1,-1,-3,0,0,0,-1
1622149740698002,0,-1,-1,0,-1,0,0,-2
1622149740714232,0,-1,-1,-3,-1,-1,0,-2
1622149740714232,-2,-2,0,1,-2,-3,-1,1
1622149740721223,-2,0,-1,-2,0,1,0,-1
1622149740721223,0,1,0,-2,-1,-3,-2,-1
1622149740737149,-1,0,-1,0,-1,-1,-2,-1
1622149740737149,-1,-2,-2,-1,-2,-3,-1,0
1622149740739118,-2,-2,-1,-1,-1,-1,-1,-1
1622149740739118,-2,0,-1,-1,0,-1,-2,-2
1622149740751228,0,-1,0,-2,-1,-1,0,-1
1622149740751228,0,-1,0,-2,0,1,-2,-1
1622149740758416,0,-2,-1,-2,-1,0,-1,0
1622149740758416,-1,-1,-1,1,-2,-2,-1,-1
1622149740774505,0,-1,0,0,-2,-2,0,-2
1622149740774505,-1,0,0,0,-2,-2,-3,-1
1622149740781286,-1,0,-2,0,-2,-1,0,-1
1622149740781286,-1,-1,0,-1,-2,0,-1,-2
1622149740797595,-1,-2,-2,-1,-1,0,-1,-1
1622149740797595,-1,0,0,0,-1,1,-1,0
1622149740798222,-1,0,-2,-3,1,0,-3,-2
1622149740798222,-1,-1,-1,-1,-2,-1,-1,-2
1622149740811986,-1,0,0,0,-3,0,0,-1
1622149740811986,0,1,0,-1,-2,0,1,-2
1622149740818351,0,-1,1,-1,0,-2,0,-1
1622149740818351,0,-1,-1,-1,0,-2,0,0
1622149740834264,-1,-3,-2,-1,-1,-1,-1,-1
1622149740834264,-2,-3,-2,-1,-2,-1,-2,0
1622149740841244,-1,-3,-1,-1,-1,-2,-1,-1
1622149740841244,1,-1,-1,1,0,1,-2,0
1622149740857652,1,-1,1,1,0,-2,-1,-3
1622149740857652,-1,-2,0,-1,-1,-2,0,0
1622149740858653,-1,0,-1,0,-1,-2,0,-3
1622149740858653,-2,-2,0,-1,-2,-1,0,0
1622149740871333,-1,1,-3,-1,-1,0,-1,0
1622149740871333,0,0,-1,0,0,-2,-2,-2
1622149740879772,-1,-1,0,-1,-2,-2,0,-1
1622149740879772,-3,0,-2,-3,-1,0,-1,0
1622149740894526,-2,-1,1,-1,-1,-3,-1,0
1622149740894526,-1,-1,-1,-2,-1,-1,0,0
1622149740900739,-1,0,0,-1,-1,0,-2,-1
1622149740900739,0,-1,-1,0,-1,-2,1,-1
1622149740917573,-1,-1,-3,0,0,-2,-2,-1
1622149740917573,0,-2,-1,-1,-2,0,-1,-2
1622149740918496,-1,0,0,-2,-1,0,0,0
1622149740918496,0,-1,-1,-2,-1,0,-2,-2
1622149740930871,0,-2,0,0,-1,-3,-2,0
1622149740930871,-2,-1,-4,1,0,0,0,0
1622149740939825,1,-2,-1,0,-2,-1,-1,-1
1622149740939825,0,0,0,-2,-1,0,0,1
1622149740954389,-1,-2,0,-1,-1,-1,0,-1
1622149740954389,-1,-2,-1,-1,0,-1,0,-1
1622149740960987,0,0,-2,-2,-1,-2,0,-1
1622149740960987,-2,-2,0,0,-1,0,0,0
1622149740977612,-1,-1,0,-1,0,0,-1,-1
1622149740977612,1,1,0,0,-2,0,0,0
1622149740978612,1,0,-1,-1,-2,-1,0,-2
1622149740978612,-1,0,-1,-1,-1,-1,-1,-2
1622149740991262,0,-1,-2,-1,-2,-2,-1,0
1622149740991262,-1,0,-2,-3,0,-2,-1,0
1622149740999311,-1,0,0,-1,-2,0,-2,0
1622149740999311,0,-2,0,0,-1,-1,-1,0
1622149741014441,0,-1,0,-2,-1,0,-1,-1
1622149741014441,-1,-1,-1,1,-3,-2,-1,-2
1622149741021312,-1,0,0,-2,0,0,0,1
1622149741021312,-1,-1,-2,-2,1,-2,-1,-3
1622149741036875,-1,-1,-2,0,-2,1,-2,0
1622149741036875,0,-2,0,-2,-1,-1,-2,-2
1622149741038842,-1,0,-1,0,0,-2,-1,-1
1622149741038842,-2,-1,0,-1,0,-1,-1,-3
1622149741050844,1,-2,-2,-1,0,-1,-2,0
1622149741050844,0,0,-2,-1,-1,-1,-2,-1
1622149741059777,-1,-3,0,1,-1,-1,0,-1
1622149741059777,0,0,-1,0,0,0,-1,0
1622149741074949,0,-2,-1,-1,-1,-1,-1,-1
1622149741074949,-1,-1,-1,0,-1,-1,-3,-2
1622149741080927,-1,-1,0,-2,-1,-2,-2,0
1622149741080927,-1,-2,-1,-1,-1,0,-1,1
1622149741097029,-1,0,-1,0,-3,-1,0,-1
1622149741097029,-2,-1,-1,0,-1,-1,1,1
1622149741103016,-1,-1,0,-3,-1,-2,1,0
1622149741103016,1,1,-2,-2,-1,-2,-1,-1
1622149741111320,-2,0,-1,0,-1,-1,-1,1
1622149741111320,-1,-2,0,-1,-2,-1,0,-1
1622149741119770,-1,-1,-1,-1,0,0,-2,-2
1622149741119770,-1,0,-2,0,-1,0,1,-2
1622149741134048,0,0,0,-1,0,-2,-1,-2
1622149741134048,0,-2,-1,-2,-1,-1,0,0
1622149741141314,-1,-2,-2,0,0,0,0,0
1622149741141314,-1,-1,-1,0,-2,-1,-1,-1
1622149741157663,-1,-1,-2,-1,-1,-2,-2,-3
1622149741157663,-1,-1,-1,-1,-1,-2,0,-3
1622149741163816,0,0,-2,-2,-3,0,-2,0
1622149741163816,-2,-2,-1,-1,0,-2,0,1
1622149741171210,-2,0,-2,-1,-1,-2,0,0
1622149741171210,0,-1,0,-1,-1,0,-1,0
1622149741179809,-1,0,-1,-1,-2,-1,-1,-1
1622149741179809,-1,0,0,0,-2,-1,0,-1
1622149741193800,-1,-1,-1,0,-1,0,0,-1
1622149741193800,0,-2,0,-1,-1,-2,-2,0
1622149741200757,-1,-2,0,0,-2,0,1,-1
1622149741200757,-2,-2,1,0,-2,0,-1,-1
1622149741216766,-1,0,0,0,-1,-1,0,-3
1622149741216766,-3,1,-1,0,-2,0,-1,1
1622149741223803,0,0,-2,0,-1,-1,-3,-2
1622149741223803,-2,0,-1,-1,-2,-2,-2,-1
1622149741231213,-1,-3,0,-2,0,-1,-2,0
1622149741231213,-2,-1,-2,-1,0,0,0,-3
1622149741240195,0,-2,-2,0,-2,0,0,-1
1622149741240195,-2,0,-2,-1,0,-2,-1,-1
1622149741254140,-2,0,-1,-1,-1,-2,0,-1
1622149741254140,0,0,-1,-1,-1,-2,0,-1
1622149741261120,-1,-2,-1,-2,-1,-1,-1,0
1622149741261120,0,-2,0,0,-1,1,-2,-1
1622149741276079,-1,-3,0,-4,0,0,0,-1
1622149741276079,-1,0,-1,-1,-1,0,-2,-1
1622149741283059,0,-1,0,-2,0,-2,-2,-1
1622149741283059,0,0,0,1,-1,-1,-1,0
1622149741299113,1,-1,-1,-2,0,0,-1,0
1622149741299113,0,-1,0,-1,-1,-1,-2,-3
1622149741301085,-1,1,-1,-1,-1,-2,0,1
1622149741301085,0,-2,-1,-1,1,-1,0,-1
1622149741314505,1,-2,-1,0,-2,0,1,-1
1622149741314505,1,-1,-1,-2,-1,-1,-1,-1
1622149741321310,0,-1,-2,-1,-1,-1,-2,-2
1622149741321310,0,-1,-1,-1,-1,0,-1,-3
1622149741336867,0,0,-3,0,0,0,-1,-1
1622149741336867,0,-2,-3,-3,-1,0,0,0
1622149741343842,0,1,2,1,-1,0,0,-1
1622149741343842,-1,-1,0,0,1,-1,1,0
1622149741359857,-2,-1,0,-1,1,-1,-2,0
1622149741359857,-1,0,0,-1,-2,-1,0,1
1622149741360975,0,-1,-3,-2,-1,-2,0,-2
1622149741360975,0,-1,-2,-1,-1,0,-1,-1
1622149741375001,-1,0,-2,0,-1,-2,-2,0
1622149741375001,-1,-2,1,-1,0,-2,-1,-1
1622149741380990,-1,-1,-1,0,-1,-1,0,-1
1622149741380990,-2,-1,-1,-1,-1,-1,-2,0
1622149741396980,-1,0,-2,-2,-2,-2,-2,0
1622149741396980,-1,-1,-1,-1,-1,-1,-2,-1
1622149741403051,-1,1,-1,-1,-1,0,-1,-2
1622149741403051,-1,-3,-1,-4,-2,-3,-1,-1
1622149741419194,0,-1,0,-2,1,-1,0,-2
1622149741419194,-2,-1,0,0,-1,-2,-1,-2
1622149741421192,-1,-1,-1,-1,0,-1,0,-1
1622149741421192,1,0,-1,0,-1,-1,-2,-3
1622149741433859,0,-2,1,-2,-3,0,-1,-1
1622149741433859,-1,0,0,0,1,-2,0,0
1622149741440834,0,0,-2,-1,-1,0,0,-1
1622149741440834,0,0,-1,-1,-3,-1,1,-1
1622149741456334,-1,0,-1,0,1,0,-1,0
1622149741456334,0,1,-2,-1,0,0,-1,-1
1622149741463355,-1,0,0,1,0,-1,-1,1
1622149741463355,-1,-2,0,-1,0,-1,-1,0
1622149741479983,-1,0,-1,0,-2,0,0,-1
1622149741479983,-1,-2,-1,-1,-3,-1,-1,0
1622149741480939,-2,0,-2,-1,-1,-1,-1,0
1622149741480939,-1,0,0,0,1,-2,-1,-1
1622149741493898,-1,0,-1,-2,-1,-1,-1,0
1622149741493898,0,1,0,-1,-2,-1,-1,0
1622149741501001,-1,-2,-1,-1,0,-3,-4,-1
1622149741501001,0,0,-1,-1,0,-1,-2,-1
1622149741516844,-1,0,-1,0,1,-1,-1,-1
1622149741516844,-1,-2,-1,-2,1,0,0,0
1622149741523831,-1,-1,0,0,-3,-1,-2,-1
1622149741523831,0,-2,1,-1,-1,0,-1,-1
1622149741539200,-2,-1,0,-2,-1,-1,-1,0
1622149741539200,-1,-2,0,0,-2,0,0,-2
1622149741541190,-1,-1,-1,-1,-1,-2,-2,-1
1622149741541190,-1,-2,-3,-1,-1,-1,-1,-2
1622149741554325,-1,1,-1,0,-1,0,0,0
1622149741554325,-1,0,-2,-1,0,-1,-1,0
1622149741561312,0,-1,-2,-2,-1,-1,0,0
1622149741561312,0,-1,0,-3,1,-1,-1,-1
1622149741577046,-1,-1,0,-2,-1,-1,-2,1
1622149741577046,-1,-1,0,-1,-1,-3,-1,-2
1622149741583033,-2,-1,0,1,-1,0,0,-1
1622149741583033,-2,1,-2,-2,-1,0,0,-3
1622149741600062,-2,-2,-1,-1,1,-2,-1,-3
1622149741600062,0,0,-2,0,-2,0,-1,0
1622149741601034,0,-1,-1,-3,-1,-3,-1,-1
1622149741601034,-2,-1,-2,0,-2,-1,-1,0
1622149741614488,0,-3,-1,0,-1,-2,0,-2
1622149741614488,-1,-1,-2,-1,-1,0,0,-1
1622149741621169,-1,-1,-2,0,1,-2,0,-1
1622149741621169,-1,1,0,-3,-2,-1,0,0
1622149741636855,1,0,0,0,-3,0,0,0
1622149741636855,-2,0,0,0,0,0,-1,0
1622149741643829,1,-1,-1,-1,-1,-1,-2,0
1622149741643829,-2,-2,1,1,-1,-2,-4,1
1622149741659994,0,-1,-1,0,-2,-1,-2,-2
1622149741659994,0,-3,-1,-3,-2,-1,0,-3
1622149741661006,-1,0,-3,1,0,1,-1,-1
1622149741661006,-1,1,0,-2,0,-1,0,0
1622149741674493,-3,1,-2,0,-1,-1,-1,-1
1622149741674493,-2,-1,-2,0,-1,-2,-2,0
1622149741680884,-2,-3,-1,-3,1,0,-2,-1
1622149741680884,2,0,-3,1,-2,-3,-2,0
1622149741696936,-1,-2,0,-2,0,-1,0,-2
1622149741696936,-1,-1,-2,-1,0,0,-1,-1
1622149741702830,-1,-1,0,-1,-2,0,0,-2
1622149741702830,0,-1,0,1,0,-1,-2,1
1622149741719826,1,-1,-1,-2,-3,-1,-1,0
1622149741719826,-1,0,0,0,-1,-1,-1,0
1622149741721825,0,-1,-1,-1,0,-1,-2,-1
1622149741721825,0,-2,-2,-1,0,1,0,-1
1622149741733808,-1,0,-4,1,0,-1,0,-1
1622149741733808,-1,0,0,0,-3,-2,-1,-1
1622149741740815,-1,-1,-1,-1,0,-1,0,-1
1622149741740815,-2,0,-1,-1,-1,-1,0,-1
1622149741756944,-1,0,-1,-1,-1,-1,-1,1
1622149741756944,-3,0,-3,-1,-1,-1,-1,-1
1622149741763027,-1,-3,1,-2,-1,1,-5,-1
1622149741763027,-1,-1,-2,-1,-2,1,2,0
1622149741779887,-1,-1,-1,-2,-1,-7,0,0
1622149741779887,-1,-2,-1,-1,0,-1,0,-1
1622149741780911,-1,1,1,-1,-1,-1,-1,-1
1622149741780911,0,-2,-1,-1,-1,-1,-2,-1
1622149741793380,-2,-1,0,-1,-1,1,-2,0
1622149741793380,-1,-2,-1,-2,-1,-1,0,0
1622149741802334,-2,-2,-2,0,0,-1,0,-1
1622149741802334,-2,-2,-1,-1,-2,0,0,-1
1622149741816295,0,-1,-1,-2,-1,-1,1,-2
1622149741816295,-2,-1,-1,-1,0,-1,-1,-1
1622149741823813,0,0,0,0,-3,0,-1,-2
1622149741823813,-1,-1,0,0,-1,-2,-4,-1
1622149741839805,0,-3,0,-2,-2,-1,-2,-3
1622149741839805,1,-1,-3,-1,-1,-2,-2,-1
1622149741841799,0,0,-3,-1,0,-2,1,0
1622149741841799,-1,1,-1,-2,0,-1,0,-1
1622149741852873,-1,0,-1,0,-1,1,-3,-2
1622149741852873,-1,-1,-1,-1,-2,-1,-1,-1
1622149741862849,0,0,-2,-1,-2,-1,0,-1
1622149741862849,-2,-1,-1,-1,0,0,-2,-1
1622149741877023,-2,-1,-2,-2,-1,0,-1,-1
1622149741877023,0,-1,-1,-1,-1,-1,-2,-1
1622149741883851,0,-1,0,-1,-2,0,-1,0
1622149741883851,-1,-1,-1,-4,0,-1,0,0
1622149741899894,-2,0,-1,-1,0,0,-1,-1
1622149741899894,-1,1,-1,0,-1,-1,-1,-1
1622149741900893,-1,1,1,1,-1,-2,-2,0
1622149741900893,0,-1,-1,-1,-2,-2,-2,-1
1622149741913839,0,-1,0,-3,-1,-1,0,-1
1622149741913839,-1,-2,-1,-2,-1,-2,0,-1
1622149741922556,-1,-1,-2,-3,0,-1,-1,-1
1622149741922556,1,-1,-1,0,-2,0,0,-1
1622149741944787,-2,0,-2,0,-1,-1,-1,-1
1622149741944787,-2,-1,0,-1,-1,-2,-1,-1
1622149741946754,-1,0,-2,-3,-2,-1,0,-1
1622149741946754,1,0,-1,-1,-2,-2,-1,-2
1622149741959745,-2,-1,0,0,-2,-2,1,0
1622149741959745,-1,-2,-1,0,-1,-1,-2,-2
1622149741961783,-2,-1,-1,-3,-1,-3,-2,-3
1622149741961783,-1,-1,-1,-1,0,-3,0,1
1622149741973829,1,0,0,-1,0,0,0,-2
1622149741973829,-1,-1,0,-1,-2,0,-2,2
1622149741982194,-1,-2,-1,-1,-1,0,-1,0
1622149741982194,-1,-1,-1,0,-2,-1,-1,0
1622149741996336,0,-3,-1,-1,0,-1,-1,-2
1622149741996336,0,-1,0,-1,0,0,1,-1
1622149742003861,0,-2,-2,0,-1,0,-1,0
1622149742003861,0,0,-1,0,0,-1,1,-2
1622149742020202,0,0,0,-1,-1,-1,-3,0
1622149742020202,-1,-1,-1,-2,-1,0,-3,-1
1622149742021200,0,1,0,-1,-2,-2,0,1
1622149742021200,1,-2,-1,0,0,-1,-1,-2
1622149742032898,0,0,-2,-1,-1,-1,-2,0
1622149742032898,1,-2,-2,-1,0,-2,1,0
1622149742041985,-1,-1,-1,-1,0,0,1,-1
1622149742041985,0,0,-2,1,-1,-2,-2,-1
1622149742057000,-1,-1,-1,-2,-1,-1,0,0
1622149742057000,-1,-2,-1,0,-1,0,0,-1
1622149742063828,-1,-1,-1,-3,-1,-1,0,0
1622149742063828,-2,-3,-1,-2,-2,1,2,-1
1622149742079435,-3,-1,0,-1,0,0,-2,-2
1622149742079435,1,0,0,-2,0,-1,-2,0
1622149742085834,-2,-2,-2,-1,0,0,-1,-2
1622149742085834,-2,-2,0,-1,-1,-1,-2,-1
1622149742093797,0,-1,-2,0,-2,-3,0,0
1622149742093797,-2,0,-1,0,1,1,1,1
1622149742102751,-1,0,-1,0,-1,-1,0,0
1622149742102751,0,-1,-1,-1,0,-2,-1,-1
1622149742117022,0,-1,0,-2,1,1,-1,1
1622149742117022,-2,-1,-2,0,-1,-1,-2,-2
1622149742123859,0,0,-1,0,-1,0,-1,1
1622149742123859,-1,0,-1,0,-1,-2,0,0
1622149742138875,-2,-2,-3,-2,1,-2,-2,0
1622149742138875,1,0,0,-1,-2,-1,-1,-1
1622149742146352,-1,-3,-1,-1,-2,-2,0,0
1622149742146352,0,0,-2,-3,-2,0,-2,0
1622149742153335,-2,-1,-1,0,0,-2,-1,-2
1622149742153335,-1,-1,-2,-2,0,-3,-2,-2
1622149742162871,0,-1,-1,-1,0,-1,-2,-3
1622149742162871,1,0,0,-1,0,1,-1,0
1622149742177035,-1,-1,0,-2,-1,-1,2,-1
1622149742177035,-2,-2,-1,0,-1,-2,-1,-2
1622149742182885,0,-1,-1,0,0,-3,-1,0
1622149742182885,0,0,-2,0,0,-1,-1,-1
1622149742198947,1,0,0,-1,-1,-1,-3,-1
1622149742198947,1,0,0,-2,-2,1,1,0
1622149742206359,-2,1,1,-2,0,1,-3,-1
1622149742206359,-3,-2,0,-1,-2,-8,0,-2
1622149742222570,0,0,-1,0,-1,-2,-3,-1
1622149742222570,-2,-2,-1,0,0,0,1,-2
1622149742223569,0,-3,-1,-2,3,0,0,-1
1622149742223569,-1,-1,-1,-2,0,0,-1,0
1622149742237043,0,-1,-1,-1,-1,-1,-2,-2
1622149742237043,-1,-2,-2,1,0,-2,-1,-2
1622149742243121,0,1,-1,-2,-1,0,-1,0
1622149742243121,-1,-2,0,-1,1,1,-2,-2
1622149742259189,-2,-1,-1,-2,-1,-1,0,-1
1622149742259189,0,0,0,-1,-1,0,-1,-1
1622149742266241,-1,0,-1,0,-2,-2,-2,0
1622149742266241,-1,1,0,-1,0,-1,-1,-1
1622149742281851,1,-1,0,0,-1,-1,1,0
1622149742281851,-1,-1,0,-1,-2,-1,-1,-1
1622149742283841,-1,-1,-1,-1,-1,0,0,-2
1622149742283841,-1,0,-2,-1,-2,-1,-1,-2
1622149742296831,0,-1,0,-1,-1,-1,-2,-2
1622149742296831,-2,-1,1,1,-1,-2,-2,0
1622149742303787,0,-2,-1,-1,-2,-2,0,0
1622149742303787,-1,-1,-2,2,-1,2,0,-1
1622149742319475,-2,0,1,-1,-2,-2,2,0
1622149742319475,-1,-1,-1,-2,-1,-2,0,-1
1622149742326312,-1,-2,-1,-2,-1,-1,-1,0
1622149742326312,-1,0,0,-3,0,0,-1,1
1622149742342666,0,-3,-1,1,-2,0,-2,-1
1622149742342666,1,-1,-1,-1,0,-1,-1,0
1622149742343668,-1,0,-1,1,-2,-2,-2,-2
1622149742343668,-1,-1,1,0,-2,0,0,-1
1622149742356789,-2,-1,0,-2,-1,-2,-3,0
1622149742356789,-1,-1,-2,0,0,-2,-2,0
1622149742362865,0,-1,-2,-1,-1,-2,-1,-1
1622149742362865,-2,-2,-2,-1,0,-1,0,-1
1622149742379498,-2,0,0,0,-2,0,0,-1
1622149742379498,-2,-1,-1,-2,-1,-1,-2,-1
1622149742385765,-1,-1,-1,0,-2,1,0,-1
1622149742385765,-1,-1,-1,0,-1,0,-1,0
1622149742401833,0,-1,-2,-2,0,-1,0,-1
1622149742401833,0,0,0,-3,0,-1,0,-1
1622149742404291,-2,-2,-2,-2,-2,0,0,-3
1622149742404291,0,0,1,-3,-2,-2,-1,-2
1622149742416816,-1,-1,-2,0,-1,-1,-1,0
1622149742416816,-1,0,-1,-3,0,0,0,0
1622149742423848,1,0,0,0,-1,-1,-1,-1
1622149742423848,0,-2,0,-1,0,-1,0,0
1622149742439552,-1,1,-1,0,-1,-2,-2,-1
1622149742439552,0,-2,-1,0,-1,-3,0,-2
1622149742445558,-1,-1,0,-1,0,-2,-2,0
1622149742445558,-1,-3,-2,-2,-2,0,-1,-2
1622149742461946,-2,-2,0,-1,0,0,0,-2
1622149742461946,1,-1,-2,0,-2,-1,0,1
1622149742463850,-1,0,-1,-1,-2,-1,1,-1
1622149742463850,0,1,0,-1,0,-1,-1,0
1622149742477013,0,-2,0,-2,0,-1,-3,0
1622149742477013,-1,-1,0,-1,-2,-1,1,-3
1622149742482868,-1,-3,-1,0,-1,0,-1,-2
1622149742482868,1,0,-3,-1,-2,-1,0,1
1622149742498898,-1,-2,-1,-2,-1,-1,-1,-1
1622149742498898,0,-1,0,0,1,-1,-3,-2
1622149742506370,-1,-1,0,-1,-1,-2,0,-1
1622149742506370,-2,-2,-1,-1,-2,-1,-3,-1
1622149742522710,0,-2,-3,0,-1,1,0,0
1622149742522710,-1,0,0,-1,-1,0,-1,-1
1622149742523710,0,-2,-1,1,-1,-2,1,-1
1622149742523710,-1,-2,0,0,-1,-2,-2,0
1622149742537030,-1,-1,-1,-2,-2,0,-2,0
1622149742537030,-1,-2,-1,0,-2,-1,0,0
1622149742543017,-2,-1,-1,-1,-1,-1,0,0
1622149742543017,-1,-1,-2,0,-1,-1,1,-2
1622149742558910,-1,-1,-2,1,1,-2,-5,-3
1622149742558910,-1,-1,-1,1,-3,1,2,-1
1622149742565860,0,0,-3,-1,-1,-3,2,-2
1622149742565860,-2,0,0,-1,0,0,0,-2
1622149742581940,0,-1,0,0,-2,-1,-2,-1
1622149742581940,-2,-2,-2,0,-1,-1,-3,-1
1622149742584958,0,1,-1,-1,-1,0,-1,-1
1622149742584958,-1,-1,-2,-1,1,0,-3,0
1622149742596927,-1,-1,-1,-2,-1,-1,1,-1
1622149742596927,0,1,-2,-3,-1,0,-2,-2
1622149742603868,-1,-1,-1,-1,-1,-1,-4,-1
1622149742603868,0,0,1,0,0,-1,-1,-2
1622149742618933,0,1,-1,-1,-1,-3,-1,-1
1622149742618933,0,-1,-1,-2,-1,1,1,0
1622149742626361,0,-1,0,0,1,-1,0,-1
1622149742626361,-3,0,-2,0,-2,0,-2,0
1622149742641990,-1,0,-2,-1,-1,0,1,0
1622149742641990,-1,0,1,-2,-2,-2,-3,-2
1622149742644395,0,-1,0,-1,-1,-3,-2,0
1622149742644395,0,-1,0,-1,-1,-1,1,-1
1622149742664925,-2,-1,-1,1,-2,-2,0,-1
1622149742664925,-3,-2,-3,0,1,-3,-1,0
1622149742665924,-2,0,-2,-1,-2,1,-2,-1
1622149742665924,0,0,-1,-2,-1,-1,-1,-1
1622149742679514,-1,0,-3,-2,-1,-2,-1,-1
1622149742679514,-2,-1,-1,-2,1,-1,0,-1
1622149742685760,0,-2,-2,-1,-1,-3,-1,-1
1622149742685760,0,-1,-2,-1,-2,-3,-1,-1
1622149742701888,-2,1,1,-1,-1,0,0,-2
1622149742701888,0,-2,-1,-1,-1,1,0,1
1622149742703795,-1,-2,0,-2,-1,0,-1,0
1622149742703795,-1,-1,-2,-2,-1,-1,0,0
1622149742715881,0,1,-2,-3,-1,-1,-1,-2
1622149742715881,-1,-1,-2,1,-3,-1,-3,-1
1622149742724574,-2,0,-1,-1,1,0,1,-1
1622149742724574,-1,0,1,0,0,-1,0,-2
1622149742739497,0,-2,-1,-1,-2,0,0,-1
1622149742739497,-1,-1,-2,0,-1,-1,-3,-1
1622149742746380,0,0,-3,0,0,-1,-1,-3
1622149742746380,-1,-1,0,-1,0,-1,-2,0
1622149742761937,-1,0,0,0,1,0,0,0
1622149742761937,-1,-1,0,0,1,-2,2,-1
1622149742763849,0,-2,-1,1,-2,0,-1,-1
1622149742763849,-1,0,-1,0,0,0,-1,0
1622149742775891,0,-1,-3,0,-1,-2,2,1
1622149742775891,0,-2,-2,-1,-2,-2,-2,-2
1622149742784605,0,-2,0,-1,0,0,0,0
1622149742784605,-3,-1,-1,-2,-2,-3,-1,-1
1622149742798858,0,-1,-4,-2,-1,-2,-1,-1
1622149742798858,0,-1,1,-1,0,0,-3,0
1622149742805719,-2,-1,0,-1,-2,-2,0,0
1622149742805719,0,-1,-2,-1,-2,3,3,1
1622149742822408,-1,-3,0,0,-2,-1,-3,-1
1622149742822408,-2,0,-1,-2,-1,-3,-1,-3
1622149742823408,-1,-2,-2,-1,-1,0,-2,-1
1622149742823408,0,0,-1,-3,-2,-1,-3,-2
1622149742835859,1,-2,0,-1,-2,-2,3,-1
1622149742835859,-1,0,-2,-1,-2,0,-1,-1
1622149742844572,-3,0,0,1,-2,-1,-1,0
1622149742844572,-2,-1,0,0,-1,0,0,-3
1622149742859548,-1,-1,0,-1,-1,-1,-1,0
1622149742859548,1,-3,0,-1,-1,-1,-1,1
1622149742865868,-1,-2,-1,-1,-1,-2,-1,-1
1622149742865868,0,-1,0,-1,-1,0,-2,1
1622149742881936,-2,1,-1,-1,0,1,0,-1
1622149742881936,-2,-1,0,-1,-1,-2,0,-2
1622149742884953,-1,-2,-3,-2,-2,-1,-1,0
1622149742884953,-1,-2,-1,0,0,0,0,-1
1622149742896349,0,-1,0,-1,0,-3,-3,1
1622149742896349,-1,0,-2,-1,-3,0,0,-1
1622149742904573,0,1,-1,-1,0,-2,-2,0
1622149742904573,0,-2,-2,-1,0,-4,-2,-1
1622149742918891,0,-2,1,-1,-3,0,-2,-2
1622149742918891,0,0,-3,1,-3,0,-1,1
1622149742926270,-2,1,0,-2,-1,0,-2,-2
1622149742926270,-2,-1,-1,-1,-2,-2,0,-1
1622149742942693,-1,1,-2,1,-1,-1,0,-2
1622149742942693,-1,-2,-1,-1,-1,-2,1,0
1622149742943693,1,0,0,0,-2,1,1,-1
1622149742943693,1,-3,-2,-1,-1,-2,-2,1
1622149742956363,-1,-3,-1,-1,0,-2,-3,0
1622149742956363,1,0,0,-3,1,-2,0,-2
1622149742964437,0,-2,-2,-1,0,1,-2,-1
1622149742964437,-1,0,0,1,-1,-1,-1,-1
1622149742978989,0,-1,-2,-1,-1,-2,1,0
1622149742978989,-1,-1,-1,-1,-1,0,-1,-2
1622149742986309,0,-1,0,-1,1,-1,1,0
1622149742986309,0,-1,0,-1,-3,1,-4,-1
1622149743002037,-2,-2,-2,-1,-1,0,-1,-1
1622149743002037,-2,0,0,-2,-2,0,3,1
1622149743008100,-2,-2,-2,-1,-1,1,-2,-1
1622149743008100,0,-1,-1,-2,-2,-13,-4,-2
1622149743015982,-1,-1,-3,-2,0,1,-4,-1
1622149743015982,-1,-2,0,-1,-1,-1,-1,-1
1622149743024557,-1,-2,0,0,-1,-1,2,-1
1622149743024557,-2,1,-1,-1,1,3,-1,0
1622149743039514,-1,-2,0,-1,-2,-1,-1,-1
1622149743039514,-2,-2,-3,-2,0,-3,-1,0
1622149743045865,-1,-1,1,1,-2,-1,-1,-2
1622149743045865,-2,0,-2,0,1,1,-1,-1
1622149743062011,-1,0,0,0,-2,-1,1,-3
1622149743062011,2,-3,-1,0,0,-1,-5,-1
1622149743068878,-1,0,-2,-1,0,-1,-1,-1
1622149743068878,0,0,-2,-2,0,0,2,0
1622149743076399,0,1,0,0,0,0,0,-1
1622149743076399,-1,0,-1,0,-1,-2,-3,-1
1622149743084581,-3,0,0,-1,0,-2,-2,-1
1622149743084581,0,-2,-2,-2,-2,1,1,-1
1622149743098871,-1,-2,0,-2,-1,1,-2,1
1622149743098871,-1,-1,-1,-2,0,-1,-2,-2
1622149743106378,-1,-1,-1,-2,-1,-1,1,-1
1622149743106378,0,0,-1,-1,0,1,0,-2
1622149743122014,-1,0,-2,-2,-1,0,0,0
1622149743122014,-1,0,-1,1,-2,-1,-1,-1
1622149743128807,0,0,-3,-1,1,-1,-1,0
1622149743128807,-1,-2,-1,-2,-1,1,-2,-1
1622149743135928,-2,0,1,-1,-1,-2,-1,-1
1622149743135928,-1,-1,0,0,-1,-2,-1,-1
1622149743144595,0,-2,-2,-2,-1,-2,-1,-1
1622149743144595,-1,-2,0,0,-2,-1,-1,-1
1622149743159524,-1,-2,-1,0,0,-1,0,-3
1622149743159524,-2,0,0,-1,-1,0,-2,-2
1622149743165860,0,-2,-1,-2,-2,-1,-1,-2
1622149743165860,0,-1,-1,-2,-1,-1,0,-1
1622149743181909,-1,0,-2,-2,-2,-3,-2,1
1622149743181909,-1,-1,0,0,1,0,1,0
1622149743187920,-1,0,0,-1,-1,0,-1,-1
