timestamp,emg1,emg2,emg3,emg4,emg5,emg6,emg7,emg8
1622149848426475,-7,-4,-8,-19,-7,-31,24,-10
1622149848426475,-1,1,6,14,-30,-4,-2,19
1622149848441038,4,-1,6,-2,55,22,8,-5
1622149848441038,-3,-5,4,14,-7,14,25,6
1622149848447024,-1,-1,-3,-2,-5,-20,0,-4
1622149848447024,-2,-4,0,13,-17,18,-36,-15
1622149848463025,1,5,7,-12,-15,34,14,14
1622149848463025,0,-4,-11,-19,-19,1,-10,5
1622149848477342,2,1,7,26,12,8,2,-8
1622149848477342,-5,-2,-4,4,0,-16,3,-8
1622149848486639,0,2,3,-11,-25,-30,0,8
1622149848486639,-2,-4,-5,-9,0,19,3,11
1622149848487643,3,1,2,-8,0,1,-17,4
1622149848487643,-3,2,8,-1,-19,-44,-38,-30
1622149848500608,-2,-1,-2,17,-33,-6,43,3
1622149848500608,4,1,-6,-26,-20,-40,21,-3
1622149848507616,-6,-7,-6,-7,15,-15,-13,0
1622149848507616,-2,1,-5,14,16,14,-10,-1
1622149848522795,-1,-3,-5,-17,-22,-11,6,0
1622149848522795,-7,0,3,19,54,-6,20,-31
1622149848529870,3,-1,-6,-37,12,-4,-37,23
1622149848529870,-1,-1,-1,10,-4,-23,0,-7
1622149848545880,3,0,-6,-7,28,69,-5,15
1622149848545880,-2,-3,-9,3,29,-35,-4,-27
1622149848547850,3,4,4,11,18,-15,-7,-2
1622149848547850,0,1,-6,-16,9,42,8,3
1622149848560842,-5,0,8,8,38,-2,-15,0
1622149848560842,4,-3,-11,4,-14,14,-21,-31
1622149848567925,-4,3,18,-29,-53,-33,47,18
1622149848567925,-1,0,-8,10,10,28,25,7
1622149848583418,3,-1,5,15,3,-7,-30,-17
1622149848583418,-6,-1,-9,-27,-10,17,-12,-16
1622149848590403,2,-2,-4,8,18,-18,-16,14
1622149848590403,1,0,-2,-17,2,-7,32,26
1622149848606333,-2,-1,-9,-4,2,-9,-6,-27
1622149848606333,1,1,15,22,5,19,-4,8
1622149848608328,1,-2,-7,0,47,14,-20,1
1622149848608328,0,3,-1,-19,-51,10,22,4
1622149848620818,0,-1,-4,9,34,-5,18,9
1622149848620818,3,4,4,-6,-13,2,-40,4
1622149848628821,-4,-7,-5,1,-14,34,13,-17
1622149848628821,-1,-5,3,8,28,-6,-13,-1
1622149848643400,-4,-4,-15,-24,-38,-12,-34,-20
1622149848643400,-2,3,6,14,24,29,18,39
1622149848650346,3,3,6,-3,-28,14,8,-10
1622149848650346,-2,-7,-2,-2,-53,-87,-37,-37
1622149848666322,3,-2,-5,-18,-9,23,25,30
1622149848666322,-7,-6,-9,-12,14,10,-29,-10
1622149848668323,-3,2,3,15,-8,-27,-2,-3
1622149848668323,3,4,4,6,25,16,1,4
1622149848681262,-2,-1,5,-6,-21,-2,5,0
1622149848681262,-4,-3,3,3,-20,-42,-11,3
1622149848687272,-1,-3,-17,7,-41,9,32,-14
1622149848687272,2,-1,12,5,31,21,-25,6
1622149848702101,0,5,4,3,-4,-10,4,-5
1622149848702101,1,-1,-2,11,-46,-74,-20,8
1622149848710278,-4,-4,-6,-18,5,2,60,-18
1622149848710278,3,3,4,20,29,-7,-42,34
1622149848725884,0,-2,-1,8,11,42,-6,-28
1622149848725884,2,1,5,-8,-24,-28,11,26
1622149848725884,-2,-6,-10,-4,12,-13,-53,-21
1622149848725884,-3,-5,-15,-33,-45,-5,16,-34
1622149848741887,-3,2,23,24,18,-24,20,19
1622149848741887,-8,0,-7,5,-2,36,-14,-21
1622149848747846,7,3,13,6,16,-22,-13,13
1622149848747846,-3,2,5,-19,-30,15,26,-7
1622149848762150,0,-2,-7,14,-4,9,-9,0
1622149848762150,-2,0,2,-11,-23,13,15,-3
1622149848769879,-4,0,-8,-8,20,8,-23,0
1622149848769879,-3,-5,-4,3,-18,-42,13,3
1622149848786875,6,0,-9,2,27,-2,-1,-5
1622149848786875,2,1,23,2,-28,-34,2,8
1622149848788871,-6,-5,-4,3,9,12,2,-19
1622149848788871,5,0,1,-11,-23,-3,-5,36
1622149848801067,-4,-2,-5,-11,2,48,-6,-1
1622149848801067,2,0,-5,5,45,36,-21,-10
1622149848807850,-4,0,0,-11,-95,-39,0,6
1622149848807850,-3,-3,-5,2,-13,-1,17,-9
1622149848822894,-2,-3,-6,-13,34,7,-26,3
1622149848822894,1,1,2,18,-31,-16,30,-2
1622149848829783,-1,0,7,0,61,22,-5,9
1622149848829783,-2,2,-3,-3,-8,-20,-39,-31
1622149848845886,-3,-2,-4,-11,-2,-13,36,-3
1622149848845886,-2,-2,-6,5,13,16,-30,-10
1622149848845886,0,2,2,-2,-10,15,-3,9
1622149848845886,-3,-7,-9,0,13,-49,10,6
1622149848861017,-3,3,11,1,-19,16,4,-26
1622149848861017,2,-4,-14,-3,19,-1,29,12
1622149848867930,-3,0,6,10,-8,0,12,12
1622149848867930,-6,-7,-10,-26,-24,14,-9,-23
1622149848883853,1,1,4,4,-52,-50,-20,0
1622149848883853,2,1,-6,2,74,17,-2,15
1622149848889837,-3,-3,-8,8,13,19,-22,-33
1622149848889837,0,4,25,-1,28,28,12,-17
1622149848906058,-2,-3,-7,24,-3,14,11,26
1622149848906058,1,0,-6,-14,-26,-45,12,3
1622149848906058,1,-1,5,-1,-1,22,-14,-1
1622149848906058,0,-1,-16,-22,17,4,7,-9
1622149848921101,3,-4,-6,-8,-36,9,-5,7
1622149848921101,-5,1,11,-15,30,41,7,-44
1622149848927928,3,2,-8,2,-39,-52,25,49
1622149848927928,-4,-2,-1,23,-1,7,-16,0
1622149848943416,2,0,4,2,27,-16,21,25
1622149848943416,3,-4,-13,-20,-34,4,-1,-10
1622149848950424,-3,1,3,5,32,14,28,-17
1622149848950424,2,0,9,-25,-21,36,-61,11
1622149848966789,1,2,-6,27,-26,-29,-4,-5
1622149848966789,-3,1,4,-13,-14,-18,8,-1
1622149848966789,-2,-2,1,0,40,-4,-12,-20
1622149848966789,-1,-3,-8,9,-19,6,25,6
1622149848981288,0,-2,0,-9,42,3,4,-1
1622149848981288,-5,-2,-7,-12,-91,-36,-14,-9
1622149848987303,-3,0,8,16,15,36,42,6
1622149848987303,5,2,-3,16,-3,-7,1,9
1622149849004018,2,-2,-3,-21,-5,32,14,-6
1622149849004018,0,-4,-6,-5,16,36,-46,-2
1622149849010284,-2,-4,-1,-14,26,32,60,40
1622149849010284,-1,-5,-6,26,10,-10,-53,-19
1622149849025820,-4,-4,-2,-7,-8,26,50,1
1622149849025820,1,0,15,20,53,2,-24,-2
1622149849026819,-3,-3,-6,-1,-57,2,17,0
1622149849026819,4,1,-8,-15,22,-23,-17,11
1622149849047839,0,3,7,-9,4,0,-31,1
1622149849047839,-3,-1,17,38,22,-47,24,4
1622149849048837,-1,-4,-5,-5,-14,-8,-26,-18
1622149849048837,-1,0,-2,4,30,-23,6,-11
1622149849064927,-5,0,1,2,-4,-13,-19,-47
1622149849064927,2,-1,-12,-10,7,5,63,74
1622149849070097,7,3,-2,-26,16,37,-70,-23
1622149849070097,1,1,-6,-4,-14,13,5,-2
1622149849085309,-5,-4,-6,2,29,26,5,-3
1622149849085309,6,8,8,5,7,-12,0,-7
1622149849086305,-2,-3,-7,32,-41,24,-19,6
1622149849086305,-3,-6,-1,-18,37,29,13,-3
1622149849108578,-2,7,1,-1,-17,-55,6,6
1622149849108578,-4,-4,3,4,22,21,33,8
1622149849108578,4,-4,0,9,1,-29,-51,-27
1622149849108578,-1,8,-3,-28,-22,0,0,1
1622149849123814,-1,-3,4,-12,-29,24,3,27
1622149849123814,3,2,0,6,21,-17,8,-5
1622149849129833,-4,0,-1,-19,14,-28,-3,-25
1622149849129833,-4,-9,0,19,-24,-21,-6,10
1622149849145942,3,2,-10,-5,-18,26,26,1
1622149849145942,1,1,-5,6,29,28,-36,-17
1622149849146916,2,-1,6,17,-5,6,47,24
1622149849146916,-3,-2,2,-5,24,3,-1,-3
1622149849167879,1,-2,-8,-23,40,-54,-35,3
1622149849167879,-4,-3,1,-2,-38,-8,-16,-21
1622149849168855,3,4,1,-5,-7,-6,22,20
1622149849168855,-4,-1,-1,18,23,27,4,-18
1622149849184833,-3,-2,7,14,-24,40,6,3
1622149849184833,3,0,-4,-21,49,60,35,9
1622149849189916,0,-1,-2,0,-1,-24,-23,6
1622149849189916,-6,-2,-5,-8,-68,-11,-12,-25
1622149849206031,3,1,0,9,10,-13,-2,25
1622149849206031,-4,0,0,-19,-27,-18,-6,-17
1622149849206031,0,-3,-9,3,-2,-40,-20,0
1622149849206031,10,-1,6,-8,-12,39,38,3
1622149849227785,-3,-2,-6,-1,7,-9,-5,-22
1622149849227785,-2,-5,-5,-3,4,22,-8,11
1622149849234850,-12,-2,0,-7,13,-2,-4,-35
1622149849234850,-4,0,-6,10,5,-3,-41,-10
1622149849243793,-3,-4,0,8,20,6,30,-8
1622149849243793,1,2,-1,-9,-5,-12,-5,11
1622149849249800,2,-2,-6,-17,-51,-9,2,20
1622149849249800,-4,2,1,11,51,5,25,6
1622149849265427,1,1,10,5,-44,-22,-47,-8
1622149849265427,-5,-3,-3,0,15,-11,-17,-19
1622149849272923,3,0,-6,6,18,-27,5,2
1622149849272923,1,-2,-2,-15,10,31,31,4
1622149849287902,1,-1,0,12,16,3,-14,8
1622149849287902,5,2,0,-2,15,23,-12,-13
1622149849288876,-4,-6,-16,-4,-9,34,2,23
1622149849288876,1,5,5,-4,3,-50,5,1
1622149849304894,-4,-1,5,4,22,11,15,-14
1622149849304894,0,-1,7,13,24,22,-2,-6
1622149849309907,1,2,4,-15,-40,31,4,18
1622149849309907,-4,-4,-15,14,1,-3,-12,-3
1622149849325365,0,1,5,-27,2,-18,25,-4
1622149849325365,0,3,-5,-3,-7,2,9,18
1622149849332793,2,1,6,3,18,-33,-40,-20
1622149849332793,-1,-1,1,11,7,-2,35,-1
1622149849347763,-1,-4,-8,3,13,-79,-60,2
1622149849347763,-1,1,1,-1,-68,-25,30,4
1622149849348731,-4,-2,5,-3,60,-8,10,-2
1622149849348731,6,2,-1,-13,-55,0,-18,1
1622149849363688,0,-3,-4,8,2,25,-15,-10
1622149849363688,-2,-5,-12,-13,-25,-29,-14,-24
1622149849369672,0,1,2,-3,-11,12,32,20
1622149849369672,-2,-2,-2,2,10,-17,-2,6
1622149849385411,0,0,2,-7,-77,-53,12,9
1622149849385411,-1,-2,-4,17,41,26,-36,-11
1622149849392762,-4,-4,0,-5,2,52,27,-20
1622149849392762,3,2,2,-10,3,-18,4,22
1622149849408001,-2,-1,0,-3,0,32,26,-8
1622149849408001,-3,-3,-2,9,-26,-23,-3,20
1622149849409001,2,0,-10,7,31,-40,-40,-31
1622149849409001,-1,2,15,13,-10,15,22,20
1622149849423960,-5,-2,-10,-12,38,36,18,-27
1622149849423960,2,-3,3,-2,-9,1,-1,41
1622149849429970,-5,1,-6,12,-12,-42,2,-5
1622149849429970,-4,-4,-1,6,22,35,-21,0
1622149849444928,1,-2,-9,-6,-15,-19,-12,0
1622149849444928,-9,-2,8,-8,3,-63,-22,-29
1622149849451910,11,-3,-11,-30,-30,-34,10,3
1622149849451910,-3,-4,2,-3,21,6,1,-1
1622149849468047,-1,-2,2,-4,15,31,3,7
1622149849468047,0,-3,-9,8,3,15,32,-4
1622149849469047,-8,-3,2,3,-59,-39,-73,-2
1622149849469047,0,2,1,8,5,-10,20,-4
1622149849484006,-1,-4,-5,-9,-7,8,-23,1
1622149849484006,0,0,-4,-6,7,23,15,-7
1622149849489991,-3,2,8,14,8,22,55,-8
1622149849489991,-3,-2,-8,-14,6,12,-19,-28
1622149849504951,1,1,0,-6,-4,7,-15,31
1622149849504951,1,2,1,0,-10,-74,-33,-22
1622149849511932,-3,-4,-3,-13,21,75,38,19
1622149849511932,3,-3,-3,1,3,-56,-13,-5
1622149849527902,1,6,10,13,26,17,20,-2
1622149849527902,-3,0,10,16,28,37,21,-9
1622149849528887,-1,-2,-6,-8,-35,-43,-88,1
1622149849528887,-4,-4,-8,-19,-15,9,24,4
1622149849544844,-4,-5,-8,-7,0,31,-10,-8
1622149849544844,2,-2,-8,-3,-3,-5,2,11
1622149849549831,-2,3,5,-12,-37,14,24,-12
1622149849549831,2,1,3,12,70,22,4,11
1622149849564790,-3,-3,-7,-14,-26,0,-1,-11
1622149849564790,3,-1,-10,3,-2,10,1,10
1622149849572780,-4,2,7,8,17,5,-23,-23
1622149849572780,3,4,6,11,-38,5,39,27
1622149849588602,-5,1,6,31,23,-17,11,-4
1622149849588602,-6,-5,-16,-60,-17,22,-13,-7
1622149849588602,6,-4,0,19,4,28,30,-6
1622149849588602,-3,1,-1,3,36,-61,-37,-19
1622149849603586,6,5,4,10,-32,-14,-1,-6
1622149849603586,-6,-8,-6,-14,1,54,-2,-2
1622149849609547,2,3,9,3,47,39,34,12
1622149849609547,-4,-3,-10,-9,-67,-19,-27,-18
1622149849624506,1,0,9,33,-5,-16,9,4
1622149849624506,-3,-2,-6,-17,-22,4,6,13
1622149849632560,0,0,-5,-15,22,12,6,8
1622149849632560,0,1,1,7,-49,-50,-7,-4
1622149849647922,2,-5,-10,-39,9,36,-44,-4
1622149849647922,2,3,13,42,-16,-12,12,-5
1622149849648922,1,-4,-3,0,-3,-10,-10,-16
1622149849648922,1,0,4,4,18,10,44,30
1622149849663514,-9,-3,-8,-10,-34,-6,26,-2
1622149849663514,0,-4,-8,-14,-12,-34,-36,-3
1622149849669783,0,3,5,2,-26,-10,5,17
1622149849669783,-1,0,3,11,21,19,-17,-7
1622149849685338,4,4,8,2,23,4,15,-13
1622149849685338,-2,-1,-4,29,14,14,8,9
1622149849692783,0,1,1,4,-34,-11,-19,8
1622149849692783,-3,-2,1,-8,0,-32,32,3
1622149849707756,-1,1,-5,1,-4,-21,-18,1
1622149849707756,3,1,7,5,3,28,-21,-10
1622149849708760,-6,-3,-5,-21,-46,9,2,-11
1622149849708760,-5,-6,-8,-19,-14,23,-9,-7
1622149849723803,1,-4,-3,3,29,-11,6,7
1622149849723803,-8,1,1,-12,-15,-52,-30,-12
1622149849729827,1,0,6,37,61,-9,44,15
1622149849729827,-1,1,-6,1,-24,31,10,-8
1622149849744940,2,0,4,-8,20,-15,8,2
1622149849744940,1,-3,1,15,26,23,-6,-1
1622149849752925,0,0,1,-18,22,19,2,-15
1622149849752925,0,-1,-5,-3,-15,4,-25,27
1622149849768655,-5,-3,-3,15,58,-4,-3,-7
1622149849768655,1,0,0,-19,9,-81,10,-4
1622149849768655,0,-1,1,9,36,-13,-34,-13
1622149849768655,-1,-5,-8,4,8,24,6,2
1622149849783847,0,3,11,-4,-7,16,14,6
1622149849783847,4,3,5,18,-33,-16,3,6
1622149849789856,-3,-4,-8,-19,-6,-11,-31,8
1622149849789856,1,3,5,11,35,-5,-17,-24
1622149849805414,-3,-10,-23,-12,-14,31,0,4
1622149849805414,-2,-1,10,-19,-17,35,-2,-23
1622149849812221,3,8,-1,-4,11,0,-21,36
1622149849812221,-8,-3,-3,-12,36,19,36,-14
1622149849827780,6,-1,3,4,1,-9,19,26
1622149849827780,0,3,-1,1,-35,31,-18,9
1622149849828776,-3,-3,0,20,-8,10,25,-18
1622149849828776,1,-1,2,-43,-5,0,-42,0
1622149849843799,-1,4,0,25,3,-5,19,-7
1622149849843799,-3,-5,-12,-28,-17,-18,-6,-24
1622149849849783,-4,1,7,19,-3,-8,-9,-3
1622149849849783,5,4,1,10,13,-35,-1,3
1622149849864778,-4,-1,-5,-22,-34,-11,-53,-31
1622149849864778,0,1,4,8,-21,7,10,8
1622149849872752,1,-2,-7,-31,-58,23,8,-3
1622149849872752,-1,-1,3,6,64,18,-8,-3
1622149849887679,0,-1,0,2,-84,-40,-24,4
1622149849887679,-3,-2,-3,4,48,51,32,-6
1622149849888703,-1,0,-2,14,26,8,18,15
1622149849888703,1,5,14,23,16,-17,-12,6
1622149849903941,-2,-3,-3,-18,-2,1,-1,9
1622149849903941,1,-4,-4,-6,-14,24,-8,-6
1622149849909768,3,3,5,10,45,-18,9,-6
1622149849909768,1,-2,-11,-28,-55,-11,11,12
1622149849925184,-9,-2,1,18,51,18,-11,-36
1622149849925184,1,1,-10,0,-84,-21,14,17
1622149849932840,2,-3,9,4,10,29,-50,-26
1622149849932840,-1,0,-4,2,4,-31,3,19
1622149849947786,-3,-1,-2,7,24,-7,16,7
1622149849947786,2,1,-4,6,62,21,5,-17
1622149849948763,0,-2,-8,-9,-37,-55,-21,19
1622149849948763,-8,-1,7,16,-34,19,-11,-51
1622149849963744,3,2,-4,-20,2,-23,-20,20
1622149849963744,-1,-3,-7,-9,39,-15,87,9
1622149849969786,-2,-3,-2,-14,-28,-27,-14,-12
1622149849969786,-1,-2,3,3,-18,8,-8,-4
1622149849985363,-5,0,1,13,-13,1,7,6
1622149849985363,-4,1,8,-2,-34,-53,-38,-6
1622149849992345,1,2,-8,-2,48,5,-20,6
1622149849992345,-1,-3,-7,8,-19,39,19,-1
1622149850007740,5,-2,4,2,4,24,13,13
1622149850007740,-2,-1,2,5,24,5,-18,0
1622149850008737,1,2,3,-19,3,-30,30,8
1622149850008737,-2,-2,-4,16,20,1,-27,5
1622149850023697,2,-2,-8,-13,-13,-19,-13,7
1622149850023697,3,0,6,1,9,24,4,4
1622149850029603,-4,-4,-6,8,-15,37,4,-11
1622149850029603,6,-1,-4,0,25,19,19,20
1622149850045041,-1,0,2,-13,-4,5,-29,-8
1622149850045041,-4,-1,13,17,15,-35,-37,-13
1622149850052973,0,-2,-6,-8,-73,0,68,35
1622149850052973,-2,-1,6,16,16,-3,-22,-16
1622149850068639,0,1,-1,-4,-20,5,25,-1
1622149850068639,1,-1,-4,2,0,-38,-16,7
1622149850068639,-5,-2,-4,0,34,53,-21,-11
1622149850068639,-3,-6,-5,-3,-30,-19,47,-4
1622149850083788,-1,-1,5,-14,0,-8,-27,-1
1622149850083788,3,5,-3,11,-12,-49,19,12
1622149850089871,-5,-3,1,-20,-10,13,41,-23
1622149850089871,1,4,1,11,-14,4,-14,39
1622149850104760,1,-4,-6,2,54,27,2,-29
1622149850104760,-5,-3,-5,-24,-23,30,-20,10
1622149850112954,-1,-5,-6,6,9,-8,-7,-11
1622149850112954,1,0,5,-8,11,21,6,11
1622149850128674,-1,0,1,11,-38,-7,7,-6
1622149850128674,3,3,4,2,9,13,1,7
1622149850128674,1,-1,1,0,-13,-13,-23,-11
1622149850128674,-5,-4,-2,-9,16,17,19,-11
1622149850143949,-5,-6,-7,-9,32,2,-4,7
1622149850143949,-1,0,1,-5,-41,-22,2,-17
1622149850149957,-5,-3,0,17,27,2,-8,4
1622149850149957,0,3,-3,-22,-16,-7,-35,-13
1622149850165467,2,2,0,7,-10,-3,12,5
1622149850165467,-3,-4,6,4,31,1,-4,-1
1622149850172864,6,3,2,0,2,-8,63,21
1622149850172864,0,0,-3,-11,-4,-12,-67,-29
1622149850187900,-6,-1,-7,-13,-16,22,35,22
1622149850187900,3,-1,-1,-7,-11,13,9,14
1622149850195321,-3,-1,-3,2,-30,-38,-42,-29
1622149850195321,5,-3,5,-10,5,37,47,31
1622149850203863,-5,2,-4,5,-12,-14,-9,-20
1622149850203863,-5,3,0,3,-1,18,-5,-7
1622149850209848,0,0,2,7,6,4,-4,11
1622149850209848,0,-2,-6,-10,-24,-33,-30,-23
1622149850226804,4,0,3,-4,6,10,-28,-4
1622149850226804,-5,-6,-4,8,37,1,38,-21
1622149850232813,5,1,-4,-17,-22,-35,-6,12
1622149850232813,-3,2,2,-4,-24,0,-6,27
1622149850247747,2,-3,0,3,23,22,-37,7
1622149850247747,0,-2,-7,2,-1,7,51,5
1622149850254759,-3,-3,-6,-4,27,-2,9,-13
1622149850254759,-2,-1,2,6,12,-10,-16,-16
1622149850263780,-2,1,0,-29,-81,-7,1,-10
1622149850263780,3,-1,-6,18,4,16,-26,-11
1622149850269808,2,3,9,11,16,32,-9,9
1622149850269808,-4,-2,1,7,10,-2,22,-9
1622149850286766,-4,-1,-3,-12,-8,-4,20,4
1622149850286766,-1,-6,-14,-8,22,6,-72,-36
1622149850292749,-3,-4,3,-27,0,64,64,10
1622149850292749,1,0,-1,20,38,15,-17,2
1622149850307734,-3,-4,2,-11,-28,-26,23,2
1622149850307734,0,-2,-4,-3,-24,10,-25,-1
1622149850314794,-5,-3,-3,-5,22,-6,-21,10
1622149850314794,6,0,0,-12,-15,34,63,8
1622149850323816,3,1,3,12,16,-39,-50,-7
1622149850323816,-3,-3,3,23,24,20,19,12
1622149850329782,-1,1,-3,-5,11,-26,-40,-28
1622149850329782,-2,-3,-4,5,11,-10,24,11
1622149850346790,-3,0,2,-4,-39,28,2,-4
1622149850346790,1,8,8,-12,8,-68,-6,-9
1622149850352772,-1,1,4,17,11,-13,0,20
1622149850352772,-5,-3,-10,-37,-53,-19,-26,-22
1622149850367765,3,1,0,23,36,-38,19,-8
1622149850367765,0,2,4,-9,-7,20,-3,3
1622149850374739,0,-2,-2,-5,-3,0,33,-22
1622149850374739,-4,-6,-6,4,-3,6,-44,4
1622149850390695,-1,-2,-3,9,1,16,5,3
1622149850390695,-3,-3,11,-2,2,6,53,3
1622149850391666,0,1,1,3,-8,-78,-62,-10
1622149850391666,1,2,2,-14,-41,-19,7,8
1622149850414404,-1,-1,-5,7,45,9,15,-8
1622149850414404,-4,-6,-18,-40,-55,-13,4,17
1622149850415401,-2,-3,3,15,-3,14,-28,7
1622149850415401,-4,-2,1,29,4,-23,18,-27
1622149850427658,-1,0,-3,-23,20,62,5,28
1622149850427658,4,-2,-5,-1,-26,-22,4,-17
1622149850434842,1,1,-4,2,30,21,32,37
1622149850434842,1,2,-3,6,-11,-3,7,-19
1622149850450779,-1,1,5,1,9,-23,-15,-15
1622149850450779,-1,1,-2,-3,25,0,-27,11
1622149850451777,-3,-2,4,-4,7,-18,13,-15
1622149850451777,1,-1,-3,18,18,25,-12,8
1622149850466735,0,-2,-1,-9,16,-20,3,-3
1622149850466735,-3,-3,0,17,7,24,-21,-2
1622149850472909,1,1,6,1,15,38,22,-3
1622149850472909,-5,-3,-14,-23,-5,-43,-25,1
1622149850488029,-2,0,11,1,22,-12,11,8
1622149850488029,-2,0,-1,8,13,35,-11,20
1622149850495036,-3,-1,-9,-27,-31,-3,4,-14
1622149850495036,-1,-2,0,10,7,17,0,5
1622149850511020,2,0,-3,-7,10,-12,-25,-2
1622149850511020,-4,0,8,-1,-9,-31,4,4
1622149850512041,-2,-6,-11,6,-32,7,-22,-5
1622149850512041,0,7,17,1,54,-20,16,-35
1622149850526781,3,-2,-10,-6,-62,1,-3,14
1622149850526781,-2,0,2,4,11,18,18,2
1622149850532926,0,0,2,-7,-19,17,-22,-19
1622149850532926,3,0,9,14,11,1,-20,4
1622149850547343,1,1,3,21,-26,3,16,-6
1622149850547343,1,-5,-12,-22,1,-9,6,21
1622149850555446,-3,-1,-5,-2,45,7,-4,-22
1622149850555446,3,0,1,3,-40,-59,-28,8
1622149850571043,-4,-2,-2,-2,2,44,50,2
1622149850571043,3,0,2,3,28,-4,-2,4
1622149850571043,-6,-5,-15,-8,-5,-48,-30,-1
1622149850571043,-6,-1,5,3,25,11,0,1
1622149850586840,3,1,1,-15,-30,-53,-18,0
1622149850586840,-3,-1,-1,11,21,15,24,-28
1622149850592809,2,-4,3,8,-24,-32,-3,24
1622149850592809,-5,-3,-15,-16,16,-3,-3,-14
1622149850607994,1,-3,-4,6,-8,-4,13,45
1622149850607994,-6,-1,3,3,-4,21,-21,-17
1622149850615493,2,3,1,9,0,-2,33,5
1622149850615493,1,2,7,8,9,2,-18,6
1622149850631025,-3,-4,-7,12,5,-2,-11,-10
1622149850631025,1,4,2,-13,-16,-20,-21,6
1622149850631025,-2,-2,0,-9,-3,16,22,-2
1622149850631025,-3,-7,-12,-10,29,6,21,4
1622149850645956,-3,0,7,4,-40,-61,-22,-16
1622149850645956,1,1,-3,-19,2,13,3,3
1622149850652438,-1,-5,-7,19,9,1,-12,-3
1622149850652438,1,-1,-1,-2,-26,5,-2,-3
1622149850667942,-8,-4,6,15,23,-16,-30,21
1622149850667942,-3,-4,0,-10,-39,31,-5,-22
1622149850675443,-5,-5,-8,-16,-38,-25,8,-6
1622149850675443,-2,-7,-6,15,-15,7,15,17
1622149850691185,0,0,7,-5,42,42,0,-21
1622149850691185,0,-2,-6,5,-23,-27,-21,1
1622149850691185,2,0,-1,-1,-3,28,24,8
1622149850691185,-1,-2,-6,-7,-6,-59,-33,-19
1622149850706233,0,4,10,8,-9,3,-8,-27
1622149850706233,-3,0,4,12,46,28,15,16
1622149850712428,0,1,-4,-2,4,20,23,8
1622149850712428,-3,-2,-1,-7,-6,-13,17,10
1622149850728018,1,2,3,-1,-13,18,-32,-18
1622149850728018,3,0,-2,12,8,-85,35,13
1622149850735462,4,3,8,3,-16,34,-11,0
1622149850735462,-2,-3,-5,-29,20,-9,-13,-15
1622149850751206,5,-3,-9,-4,2,23,29,17
1622149850751206,0,-1,9,5,-72,9,-2,-7
1622149850751206,-2,3,1,14,2,-41,-95,-15
1622149850751206,6,1,0,10,-16,31,81,1
1622149850766255,-4,-6,-14,-15,14,12,14,-20
1622149850766255,-6,-2,-4,7,31,3,-17,-10
1622149850772993,4,4,5,-15,-30,-22,-3,-6
1622149850772993,2,4,8,6,-26,52,-19,24
1622149850788033,0,1,-6,-9,9,-19,3,11
1622149850788033,-1,1,3,28,32,30,-11,-41
1622149850795043,-5,-1,1,-3,10,-14,-11,20
1622149850795043,-3,1,-5,-3,-21,15,22,-17
1622149850810675,1,-3,1,3,6,3,13,23
1622149850810675,-5,-4,-9,-15,-13,-8,-7,2
1622149850811675,2,1,2,-3,-16,-26,-4,-3
1622149850811675,-3,0,2,4,7,26,-31,-2
1622149850826844,-2,-4,-9,16,5,-29,-10,-4
1622149850826844,2,1,3,-15,-16,-15,-17,8
1622149850832939,0,-2,-13,-6,31,25,11,-5
1622149850832939,0,3,14,-2,-28,11,21,14
1622149850848714,-1,-2,6,10,16,20,-11,-23
1622149850848714,-1,-3,-6,-3,-20,28,17,-11
1622149850854827,3,-1,-1,8,20,-12,13,37
1622149850854827,-2,-5,-12,-34,-27,9,-22,-10
1622149850871109,-7,-3,-1,-5,-6,13,9,-7
1622149850871109,3,1,-2,6,9,-11,1,6
1622149850871109,-6,-3,4,-13,-36,-21,-3,2
1622149850871109,-3,-2,-5,24,51,60,48,6
1622149850886867,3,-1,-3,-19,-39,-39,-48,-1
1622149850886867,-2,-6,-4,-3,-23,5,12,1
1622149850892851,0,2,3,3,56,24,-11,-28
1622149850892851,6,0,2,5,-15,-41,32,25
1622149850908066,-3,1,0,14,-11,48,-1,-2
1622149850908066,-2,1,-5,-12,30,-49,-36,4
1622149850915520,1,0,2,-7,-29,-34,-6,-13
1622149850915520,-3,-5,6,0,15,-11,-15,-1
1622149850931013,0,-1,-4,-7,-20,14,27,0
1622149850931013,0,-5,-5,2,29,-15,-5,9
1622149850931013,0,0,-4,-4,-14,26,11,-1
1622149850931013,-3,-1,-5,-10,6,-20,2,-15
1622149850946317,0,-2,-4,8,-18,-33,-21,43
1622149850946317,6,-1,2,15,44,8,8,10
1622149850952302,-2,-2,5,-16,-14,44,4,-8
1622149850952302,-8,-5,-6,-19,0,33,-4,-7
1622149850967996,1,2,0,7,-10,-6,34,-1
1622149850967996,1,-2,-8,-2,21,-31,-39,-6
1622149850975386,-1,-1,5,16,20,55,48,13
1622149850975386,-3,1,4,11,-27,-42,-40,-10
1622149850990777,10,3,0,-16,5,4,3,-4
1622149850990777,-4,1,0,-7,-32,15,16,-2
1622149850991774,2,1,2,6,0,-56,-4,-12
1622149850991774,0,1,-5,-1,9,-1,3,9
1622149851006190,-4,2,0,-8,6,-39,-31,-14
1622149851006190,5,1,4,0,-36,21,38,-11
1622149851012840,4,-1,-1,8,-7,-10,-24,22
1622149851012840,6,1,2,0,-3,-21,15,2
1622149851027879,-6,-1,-1,-16,40,-30,-40,-44
1622149851027879,-3,-1,-3,-3,-45,12,2,-10
1622149851035449,2,1,5,12,30,44,21,22
1622149851035449,-1,0,-4,-5,-2,10,-2,14
1622149851051219,3,-2,-3,6,36,13,-2,-9
1622149851051219,-6,0,4,-1,20,8,8,-1
1622149851051219,0,2,-3,-13,-4,-37,-42,-20
1622149851051219,-2,-4,3,4,-12,-18,15,12
1622149851066266,4,-1,1,-4,16,-4,-10,-11
1622149851066266,-1,-1,-3,6,23,25,2,31
1622149851073027,-3,-1,-1,3,46,16,19,-11
1622149851073027,0,0,0,9,1,-59,-19,-4
1622149851088001,-6,-2,-10,-36,-19,42,36,-4
1622149851088001,1,-2,6,-6,-36,-23,0,9
1622149851095009,1,-2,-1,7,-1,-19,-20,-27
1622149851095009,-2,2,0,0,10,-11,9,6
1622149851110040,0,0,6,19,-26,21,18,2
1622149851110040,-1,-1,-3,-1,18,6,-9,6
1622149851126849,-3,-2,-3,-1,-10,-16,-3,-18
1622149851126849,2,-2,-7,-1,-21,32,-44,-2
1622149851127845,-6,-2,-2,-3,67,36,29,22
1622149851127845,4,-3,-9,-3,-25,-60,4,-17
1622149851132891,-4,7,3,6,-89,-4,-9,31
1622149851132891,0,-5,5,14,22,10,-9,-9
1622149851147766,-1,-3,-9,-18,-3,-27,16,10
1622149851147766,2,3,5,1,14,11,14,18
1622149851154743,0,0,-1,2,38,-21,-16,-11
1622149851154743,0,1,5,2,9,54,14,1
1622149851169702,-5,-2,-4,8,-14,0,6,-4
1622149851169702,-5,-2,2,0,13,-11,-9,7
1622149851178009,-2,-5,-5,-4,-5,-29,4,-10
1622149851178009,2,5,4,8,-10,72,-5,4
1622149851186865,4,-1,0,25,-19,-7,-40,-16
1622149851186865,2,1,-3,-14,23,19,-1,2
1622149851192850,-5,-8,-3,-23,-20,12,23,0
1622149851192850,-1,1,5,0,22,-16,-38,-14
1622149851207973,-5,0,-8,-25,-29,-38,16,11
1622149851207973,-6,-4,-4,0,-29,-11,8,-8
1622149851215252,-6,-7,-12,1,-9,58,-15,7
1622149851215252,-2,-1,-5,-16,13,-29,21,6
1622149851229862,4,-1,1,5,23,18,-11,6
1622149851229862,2,-1,-4,0,25,18,10,-1
1622149851238011,0,-3,-3,-6,-44,-9,9,7
1622149851238011,-6,-5,-6,-8,-1,28,3,-15
1622149851246989,0,-2,6,19,-5,-48,-35,5
1622149851246989,-1,2,-10,-32,22,41,16,9
1622149851253038,0,0,4,10,19,14,-45,-26
1622149851253038,0,0,5,-4,-34,-36,57,-3
1622149851267941,-2,0,0,2,-40,21,-2,-3
1622149851267941,-3,-2,5,6,-11,2,-57,10
1622149851275263,2,-2,1,9,14,-44,50,11
1622149851275263,-1,-6,-19,-15,-18,13,-6,-2
1622149851289786,-2,0,9,12,37,28,36,0
1622149851289786,5,5,4,12,-6,52,-7,-31
1622149851297761,-2,2,-1,-8,-64,-49,0,16
1622149851297761,-1,-1,1,-9,5,-41,-51,0
1622149851312754,2,3,4,7,18,31,27,17
1622149851312754,-2,-5,-6,-11,5,-23,-7,-22
1622149851313718,5,4,7,2,26,12,26,2
1622149851313718,2,1,-2,15,37,-36,-33,0
1622149851327679,-13,-10,-15,-29,-65,-17,8,-2
1622149851327679,3,4,7,11,11,-34,-13,-10
1622149851335498,-4,-2,-2,-2,76,60,16,8
1622149851335498,2,1,-2,-6,10,-44,-9,6
1622149851349771,-6,0,4,-2,22,-73,-10,-20
1622149851349771,-1,-2,1,13,-25,-11,19,2
1622149851358026,-3,1,-3,-5,7,22,-19,-3
1622149851358026,-8,-3,-3,-6,-10,17,-2,-4
1622149851372937,14,2,4,8,-8,22,3,11
1622149851372937,-10,-6,-19,-16,-24,-1,-8,-18
1622149851373855,5,-3,7,6,-17,-20,-5,0
1622149851373855,-2,3,4,-7,-1,13,19,-7
1622149851387879,1,-1,-3,-3,-46,-11,-13,-7
1622149851387879,-3,4,13,12,10,-13,1,17
1622149851394856,-7,-4,-9,-9,-11,32,5,-18
1622149851394856,-1,-4,-4,-14,-2,21,-10,-32
1622149851409872,9,-1,-2,-1,-4,31,52,22
1622149851409872,3,9,11,10,-1,-8,8,6
1622149851418010,-4,-1,-5,-7,12,-13,4,4
1622149851418010,-5,-2,2,12,30,48,11,-6
1622149851433440,-4,-6,-3,-1,35,-22,-33,-4
1622149851433440,-1,-1,2,-3,-44,11,25,-25
1622149851434404,1,0,-2,0,24,-6,-33,-26
1622149851434404,-2,-7,-11,4,-1,16,17,31
1622149851447376,-2,2,0,-5,23,29,-34,-14
1622149851447376,2,-2,0,-5,-22,9,11,14
1622149851455351,-2,-4,-5,-3,35,-15,3,3
1622149851455351,-1,-6,-7,0,-55,-42,-36,-45
1622149851469796,0,-2,-2,2,52,35,37,29
1622149851469796,-3,-2,7,-1,9,25,-12,5
1622149851477355,2,1,-3,-2,-12,3,-26,-1
1622149851477355,-1,4,7,3,31,-25,35,-2
1622149851492800,0,0,-6,-10,-15,-2,30,30
1622149851492800,-3,-7,-5,2,16,-46,4,-23
1622149851493799,1,-4,-3,8,50,-7,-38,7
1622149851493799,-1,-1,0,3,-67,16,24,-12
1622149851507758,-6,-4,2,-13,-23,-30,-57,-28
1622149851507758,7,0,-8,-20,10,-10,26,35
1622149851523664,-1,0,2,10,11,-29,14,11
1622149851523664,3,0,-1,-4,-12,5,-39,-6
1622149851529762,-8,-2,-5,11,-12,-6,-14,-11
1622149851529762,-1,-4,-6,-7,-12,-11,0,10
1622149851538075,3,3,3,8,-22,30,22,2
1622149851538075,-1,-1,10,-3,-23,-4,-17,20
1622149851561158,2,1,-8,2,7,-22,18,-13
1622149851561158,-5,0,10,13,39,-23,-16,6
1622149851561158,-3,-9,-15,-41,-61,-4,-2,6
1622149851561158,0,0,-7,15,-9,-6,2,12
1622149851568727,5,2,11,8,14,44,23,-4
1622149851568727,0,-4,-8,-18,0,6,-1,-8
1622149851575279,2,2,1,-1,5,-29,-46,11
1622149851575279,-4,-1,-7,-26,17,42,10,-17
1622149851589874,0,-4,-8,3,-35,-71,5,5
1622149851589874,0,1,0,10,21,42,-16,1
1622149851598060,-2,-2,3,8,-43,-48,1,-9
1622149851598060,1,-1,1,5,35,46,6,-16
1622149851613039,-6,-1,-1,-5,-10,-31,-5,2
1622149851613039,1,-2,-4,-3,-22,0,-13,-4
1622149851614539,-3,-6,-5,1,12,4,-16,-8
1622149851614539,4,7,7,7,-10,-41,12,14
1622149851628764,-1,4,6,-5,-27,46,-35,-18
1622149851628764,-1,-1,-6,17,12,-35,-1,6
1622149851634929,-1,2,4,-9,-23,36,31,-1
1622149851634929,3,-1,-8,-8,5,-6,-25,14
1622149851651817,-5,-3,-4,0,35,28,25,-7
1622149851651817,-4,-3,0,3,-37,-24,-29,-23
1622149851658027,0,0,-4,-6,33,4,17,21
1622149851658027,-4,0,8,9,-7,-18,-4,-4
1622149851673138,-2,1,-3,-4,8,-15,5,13
1622149851673138,-6,-4,2,-6,-46,12,7,-11
1622149851674039,11,0,2,-6,15,-23,4,26
1622149851674039,-6,-4,-5,-2,-22,3,-6,-10
1622149851688644,0,-1,1,2,-1,-7,-1,6
1622149851688644,-8,-4,-11,-3,32,34,12,-3
1622149851694636,-1,2,7,8,24,9,6,-29
1622149851694636,1,2,4,-9,-23,9,13,23
1622149851709714,0,0,-2,10,17,-4,-52,-4
1622149851709714,3,-2,1,-9,-10,-19,22,4
1622149851718084,-5,-4,-5,17,34,23,-19,-23
1622149851718084,4,1,0,0,-47,-44,20,-5
1622149851733652,-2,1,4,-10,-40,6,-3,-9
1622149851733652,4,-1,-3,4,4,9,-18,4
1622149851733920,-2,4,6,9,-16,20,12,2
1622149851733920,1,-1,-1,7,63,30,16,15
1622149851748768,-4,-5,-7,-20,-13,-9,-36,-16
1622149851748768,2,6,6,1,4,-10,4,11
1622149851754850,-9,-2,-1,2,-24,-23,17,-18
1622149851754850,2,2,-5,-1,39,37,-14,-25
1622149851769884,5,3,16,11,-13,-45,-8,23
1622149851769884,-3,0,-7,2,-10,25,27,-17
1622149851778027,-3,0,5,4,-29,-31,-31,23
1622149851778027,2,-7,-9,-17,92,2,13,-13
1622149851792790,0,4,-2,20,3,3,6,4
1622149851792790,-5,-2,-3,-13,-5,41,21,-6
1622149851799851,-2,-4,-9,3,4,17,47,-4
1622149851799851,0,1,7,12,-24,-41,-72,5
1622149851809389,2,-1,-3,-35,1,19,33,-2
1622149851809389,-4,-7,-7,8,8,7,-15,0
1622149851815512,4,1,4,-8,-8,-21,2,0
1622149851815512,-2,-3,-2,6,-10,26,13,19
1622149851829825,2,0,2,11,13,19,-5,-23
1622149851829825,1,3,0,-1,-36,-62,15,10
1622149851837863,-1,-1,-3,-17,-13,30,-30,-21
1622149851837863,0,-2,-3,0,-28,-9,47,37
1622149851852858,-1,2,1,22,50,40,-47,-27
1622149851852858,2,-4,-3,-12,-13,28,14,20
1622149851853824,2,-2,1,2,20,-9,-36,-9
1622149851853824,-2,-2,-5,-1,-6,12,32,-20
1622149851868804,-7,1,-4,12,32,11,24,18
1622149851868804,6,-3,10,1,14,-12,-20,8
1622149851874767,-3,-1,-7,-5,-4,15,-11,-9
1622149851874767,2,3,-2,-16,7,-29,-9,-1
1622149851889809,-8,-4,-7,8,-31,-36,-9,-15
1622149851889809,2,7,18,-2,14,10,11,-32
1622149851897790,-1,-5,-3,2,13,3,16,27
1622149851897790,-1,-4,-12,-2,26,-37,2,-8
1622149851912824,0,0,3,-17,-24,20,7,-4
1622149851912824,-4,4,4,4,-80,-26,-35,-3
1622149851913838,0,-1,5,6,32,8,26,3
1622149851913838,-2,-7,-7,4,-37,24,-13,2
1622149851928814,-3,-6,-8,-19,-2,-7,47,2
1622149851928814,-3,2,-3,22,4,13,-15,6
1622149851935466,1,-2,3,-2,19,-65,-22,-9
1622149851935466,-3,-2,-3,-12,-34,20,2,4
1622149851949775,-3,-3,1,9,-17,-53,-15,-13
1622149851949775,4,-2,-5,-5,-5,20,12,19
1622149851965719,4,2,4,-5,-12,32,6,9
1622149851965719,-3,-1,9,0,10,-51,-25,-3
1622149851972700,1,-1,-4,-11,39,33,-5,-2
1622149851972700,1,0,-4,9,-17,-18,-4,16
1622149851973724,-7,-5,-17,-17,3,-13,13,-12
1622149851973724,4,6,16,-1,-14,-21,-22,-2
1622149851988699,0,-5,-7,-13,8,40,4,9
1622149851988699,-3,-3,3,10,21,-3,-7,-12
1622149851994713,0,1,-5,-1,-35,-11,-4,10
1622149851994713,-3,0,2,-3,-33,-10,-1,3
1622149852009648,-4,-8,-14,-22,-77,-59,5,-4
1622149852009648,-4,-3,-12,-2,27,-2,-5,-4
1622149852018069,9,6,11,-4,-47,27,12,-4
1622149852018069,-2,2,-1,9,32,69,17,13
1622149852033622,-2,-1,6,22,20,0,-16,0
1622149852033622,2,-5,-15,-17,-11,-15,-6,-3
1622149852033815,-5,-4,0,-4,8,-7,-7,-22
1622149852033815,-5,-1,-4,-9,5,-11,6,12
1622149852048805,1,4,6,1,9,10,-8,-2
1622149852048805,-3,-2,-3,12,44,-24,9,-12
1622149852054789,-4,0,7,4,-25,-24,4,3
1622149852054789,3,5,7,4,12,15,20,-10
1622149852069851,-2,-5,-7,6,-6,27,-32,-12
1622149852069851,1,-1,2,-14,21,7,5,46
1622149852077856,0,0,-2,5,0,-26,4,1
1622149852077856,-8,-9,-5,7,7,1,-6,-5
1622149852092793,8,2,6,16,16,28,45,20
1622149852092793,-10,4,5,-36,-23,-35,-29,-35
1622149852099855,2,-7,-5,9,48,30,2,7
1622149852099855,3,-3,-13,-6,5,23,10,0
1622149852108520,0,7,11,10,17,-28,23,10
1622149852108520,4,1,-1,8,20,29,-12,-6
1622149852115568,-6,-3,-6,-7,23,20,0,1
1622149852115568,1,-1,0,2,-5,0,-7,-12
1622149852129859,2,1,1,2,-1,-3,2,6
1622149852129859,2,-5,-3,-10,1,17,18,-6
1622149852137890,0,2,-3,-1,-7,20,-4,-15
1622149852137890,-1,-1,-2,0,23,-50,-27,-8
1622149852152906,1,0,-2,-8,-32,25,7,7
1622149852152906,-2,-2,3,8,33,7,3,-4
1622149852159858,1,-1,-2,-14,-7,8,-19,0
1622149852159858,-4,1,-2,-1,-4,6,52,-14
1622149852168840,-5,0,1,-7,-12,-38,-37,-4
1622149852168840,-3,-7,-1,14,-44,-28,-11,-8
1622149852174995,-1,0,-7,-12,-16,57,-4,-3
1622149852174995,1,-1,9,4,-4,-32,-45,4
1622149852190480,3,-1,-3,6,21,9,54,-2
1622149852190480,-3,-3,-10,-4,32,1,1,14
1622149852197614,-6,-1,4,5,-20,16,0,-2
1622149852197614,3,-2,-1,-3,-9,-1,-30,-6
1622149852212329,-2,-3,-5,-4,21,26,5,3
1622149852212329,8,3,-1,-6,23,-30,12,35
1622149852220525,1,0,4,21,4,-29,7,0
1622149852220525,0,0,-4,-14,14,-5,11,5
1622149852228949,-7,-4,-2,4,-19,-47,2,-26
1622149852228949,-2,-4,-2,-18,-35,84,-7,5
1622149852235488,-1,5,-2,-13,-37,-97,-21,9
1622149852235488,-2,-2,13,15,-26,14,26,-19
1622149852249774,-1,-2,-7,-10,4,5,11,29
1622149852249774,0,-2,-2,13,-21,7,-4,11
1622149852258012,-5,-6,-3,11,20,-14,-21,-36
1622149852258012,3,-2,-6,-6,-7,-1,3,28
1622149852273023,5,2,-4,-16,59,1,-18,-9
1622149852273023,-1,0,14,11,-48,-13,-5,-10
1622149852279843,-4,-3,-7,-2,-54,-46,-5,-7
1622149852279843,2,3,3,19,13,-19,-20,31
1622149852296058,-1,-2,6,-23,24,91,6,-3
1622149852296058,-3,-2,-15,-11,-34,-67,-33,-23
1622149852296058,-2,1,7,-6,17,10,19,17
1622149852296058,0,2,-2,5,-5,30,36,-15
1622149852310212,0,-2,-1,15,1,-6,-11,2
1622149852310212,-1,1,-1,-2,9,-34,10,-7
1622149852318075,-12,0,6,-1,28,31,-3,-36
1622149852318075,6,-3,-8,-17,-31,-28,-16,28
1622149852333035,1,-2,-2,14,6,15,-1,-2
1622149852333035,-5,-4,-17,-40,0,-26,-16,-21
1622149852339775,3,-2,9,7,15,-16,8,20
1622149852339775,-3,3,-4,-3,28,17,15,-7
1622149852356256,-3,-2,1,9,-6,50,-8,-32
1622149852356256,10,0,1,-2,-16,-29,-1,36
1622149852356256,-7,2,-1,3,14,41,10,5
1622149852356256,-6,-4,0,14,-15,-23,-26,-14
1622149852370585,3,2,1,1,-26,4,-10,-18
1622149852370585,0,-5,-1,9,50,19,53,4
1622149852378109,8,0,-5,-16,-9,-20,15,36
1622149852378109,-4,2,8,-4,-52,-14,-30,-13
1622149852401894,-5,-2,0,-4,19,-65,-16,3
1622149852401894,-6,-2,-3,12,10,62,13,-21
1622149852402863,1,0,3,4,20,-11,-18,-10
1622149852402863,1,-5,-7,3,4,-33,-7,5
1622149852415876,2,1,-2,-9,-8,17,6,15
1622149852415876,-8,5,7,19,-26,-32,-9,-13
1622149852416972,7,-4,-7,-15,21,23,15,9
1622149852416972,-6,-3,-4,-19,11,12,-27,-50
1622149852429874,-4,-3,-2,4,-3,-2,-37,6
1622149852429874,2,1,2,-9,7,22,33,-4
1622149852437977,-5,-2,7,15,-24,5,-16,-13
1622149852437977,3,4,1,6,21,20,50,19
1622149852453043,0,-5,-12,-7,23,-62,-54,-9
1622149852453043,-8,-1,3,1,-45,41,-4,-8
1622149852459973,4,-2,-4,2,-11,25,1,17
1622149852459973,-4,-3,-2,-1,9,26,-12,-4
1622149852475791,-2,-1,4,0,-9,-20,33,-1
1622149852475791,4,-2,-2,-1,29,-7,-13,9
1622149852476798,-8,-5,-10,-17,9,-13,5,-25
1622149852476798,1,-3,0,6,-30,-42,-2,20
1622149852489813,1,3,-3,0,-46,55,-18,-8
1622149852489813,-5,-4,-1,-16,61,14,-27,-8
1622149852497808,5,0,0,7,-33,-15,12,-2
1622149852497808,-6,-1,-2,5,-20,21,12,-5
1622149852512781,-7,-5,1,-28,-50,-36,22,8
1622149852512781,4,0,-2,15,25,39,-63,-22
1622149852519659,-3,-3,-5,2,13,11,26,-4
1622149852519659,3,-3,-3,-2,24,39,57,11
1622149852536210,0,2,6,2,-46,-27,-31,3
1622149852536210,0,-4,-6,-4,6,30,22,5
1622149852536210,-2,-2,-7,28,61,44,-29,0
1622149852536210,-3,0,11,-24,-21,-16,-4,-6
1622149852550200,1,1,-6,0,7,12,10,-5
1622149852550200,-3,2,3,-3,-12,-23,-17,-22
1622149852557535,11,1,-6,-5,2,-5,5,53
1622149852557535,3,-1,2,25,-4,9,26,8
1622149852572378,-4,4,-5,-16,-41,-26,-38,-6
1622149852572378,0,-4,1,1,18,-43,36,8
1622149852579875,0,5,9,-12,16,11,-2,-14
1622149852579875,-7,-2,0,13,26,-16,-58,-18
1622149852595920,3,-5,-8,-13,-34,-39,7,4
1622149852595920,0,3,3,2,-15,18,0,10
1622149852596989,-2,-1,-2,-4,-64,-42,13,1
1622149852596989,2,-3,-6,-11,47,2,14,13
1622149852609912,-2,0,4,21,33,22,-23,-34
1622149852609912,4,4,0,-5,-37,-59,-13,6
1622149852618074,-7,-4,-6,-12,-35,18,23,-3
1622149852618074,-3,-2,-5,-13,16,7,-3,-11
1622149852633826,0,-2,2,8,12,-9,20,5
1622149852633826,8,0,3,3,-28,24,8,2
1622149852639812,-3,4,13,5,-27,13,-1,17
1622149852639812,-4,-2,-7,-4,30,-48,-42,-29
1622149852656217,-2,-4,-1,-4,23,13,46,3
1622149852656217,1,8,9,20,-2,-12,6,13
1622149852656217,2,-4,-6,-14,21,16,-15,-22
1622149852656217,2,0,-4,-13,10,22,10,8
1622149852669875,-4,-3,0,13,2,28,12,10
1622149852669875,5,1,9,7,18,-8,-55,8
1622149852678108,-3,-3,-8,-3,-53,3,37,-4
1622149852678108,-2,2,0,-1,27,-11,-54,3
1622149852692766,-3,-7,-13,-19,-35,-33,84,9
1622149852692766,-8,0,3,6,36,33,8,-19
1622149852699861,1,-2,2,5,18,-47,-50,-4
1622149852699861,5,-1,1,0,-29,14,1,18
1622149852716241,-1,1,4,10,26,10,-36,-35
1622149852716241,-4,-6,-6,-11,-1,34,23,16
1622149852716241,-1,0,-4,-8,-8,-67,-3,-9
1622149852716241,-2,1,3,27,3,18,-17,-8
1622149852729864,4,1,-9,-16,-25,-30,-21,27
1622149852729864,-6,-5,-8,-8,16,0,35,5
1622149852738081,5,-1,8,-18,-54,-6,0,-7
1622149852738081,-5,-3,-5,11,41,16,-5,6
1622149852753043,-2,6,11,16,-2,-23,-2,0
1622149852753043,0,-11,-13,-9,-6,17,-23,30
1622149852760025,2,1,-3,-8,27,6,-8,-11
1622149852760025,-7,1,5,-3,-52,21,23,0
1622149852775394,-3,2,8,8,16,-32,-21,10
1622149852775394,-1,-6,-6,-9,13,22,7,-39
1622149852776390,-2,0,1,13,-3,14,-21,0
1622149852776390,2,-2,-1,-14,-6,-51,30,-13
1622149852789802,-2,-4,-7,-1,-10,22,7,-7
1622149852789802,-2,-1,-3,8,39,4,26,2
1622149852798112,0,0,10,9,47,14,-34,4
1622149852798112,2,4,3,11,-7,35,10,-11
1622149852812887,-1,-6,-8,-24,13,-36,-15,16
1622149852812887,0,3,-1,13,-19,7,12,-6
1622149852819872,-4,-2,-15,-15,0,-2,-24,-5
1622149852819872,-6,-7,-8,-3,-35,-9,20,9
1622149852835865,1,4,14,-6,40,24,0,-9
1622149852835865,-2,-3,-7,7,17,-22,-30,10
1622149852836865,-3,0,1,10,33,11,8,-26
1622149852836865,3,0,-5,-14,-63,-35,-16,-5
1622149852849830,-2,-3,1,8,-25,65,25,11
1622149852849830,-2,0,-1,-13,-63,-17,-10,-23
1622149852858022,-5,-4,-10,-8,-8,5,25,21
1622149852858022,4,2,10,-5,21,7,-15,-6
1622149852872449,0,0,-1,14,44,16,-2,0
1622149852872449,3,7,11,-2,-9,23,34,-10
1622149852879869,-2,-3,-5,24,24,-28,-24,-2
1622149852879869,-2,-5,-3,-40,-13,-33,-27,-25
1622149852895757,0,-5,-4,5,12,-11,35,11
1622149852895757,0,6,0,11,28,-9,-7,16
1622149852897080,0,-3,-3,0,-40,-14,-8,24
1622149852897080,-4,2,-6,-4,7,-5,8,-8
1622149852911509,4,0,3,10,55,15,7,1
1622149852911509,-7,-7,-2,-13,-59,-20,-3,-13
1622149852918101,-6,-4,-3,9,-1,-18,2,-18
1622149852918101,7,4,15,27,26,-2,-24,-12
1622149852932598,-1,1,-10,-20,-22,-21,-10,8
1622149852932598,-4,-5,-12,-22,12,7,16,2
1622149852939610,2,5,15,21,26,23,-7,-4
1622149852939610,-4,-3,-8,-17,-30,-13,4,1
1622149852956228,0,-1,1,-1,12,15,-14,-32
1622149852956228,3,2,0,1,10,-32,-21,-3
1622149852956228,-5,-3,-1,20,1,2,-7,-11
1622149852956228,-6,-3,1,-3,17,0,41,12
1622149852971285,1,-1,-3,-2,6,31,-28,0
1622149852971285,-3,1,-3,-17,-32,-34,-15,-1
1622149852977702,1,1,-5,-25,-15,-12,19,-9
1622149852977702,2,-2,-12,7,-27,15,11,18
1622149852992901,-2,0,22,16,1,-4,-7,2
1622149852992901,-1,1,9,7,14,2,-7,-2
1622149852999886,3,0,-4,-7,-8,4,8,6
1622149852999886,0,-3,-12,-5,17,7,-2,6
1622149853015490,-2,-3,-11,-14,-34,-27,-4,2
1622149853015490,1,0,5,13,9,-5,-11,-24
1622149853022437,3,-1,8,-14,6,3,5,17
1622149853022437,2,4,-1,8,19,15,-2,24
1622149853031274,-3,-7,-8,-6,-9,-22,-9,-40
1622149853031274,-4,2,4,11,-3,36,42,14
1622149853037260,1,1,-4,-20,-8,10,28,-5
1622149853037260,-7,-8,3,8,-21,-15,-36,-5
1622149853053019,7,3,0,12,-12,-28,37,18
1622149853053019,0,-3,-3,7,3,-4,-59,6
1622149853068751,0,-3,-7,-2,15,-7,56,-4
1622149853068751,-3,1,10,6,2,6,-32,-2
1622149853074845,-5,-1,-3,-10,-21,-44,-4,7
1622149853074845,2,-2,-2,1,14,0,12,-26
1622149853083016,0,1,7,-4,15,-26,-25,-4
1622149853083016,2,-4,-7,-3,-8,28,0,19
1622149853091779,-5,-1,-9,5,11,36,21,-5
1622149853091779,0,0,0,-20,19,-17,-15,-17
1622149853098110,-5,-1,2,14,-22,18,-14,-12
1622149853098110,-1,-2,6,-5,11,30,-15,-15
1622149853112358,1,2,-2,-7,-8,13,12,8
1622149853112358,4,0,-4,6,13,-28,-17,13
1622149853119881,2,0,-1,1,7,17,7,6
1622149853119881,2,1,-1,2,27,32,3,-4
1622149853135581,-3,-4,2,-9,-15,-36,15,-17
1622149853135581,-2,-1,3,-4,-15,-7,-5,33
1622149853142790,-5,-3,-5,-1,19,34,4,-15
1622149853142790,-7,-2,-2,16,-5,-14,-4,-47
1622149853151741,9,3,2,3,15,30,-30,57
1622149853151741,-1,1,1,-26,-10,11,47,-8
1622149853158093,-1,-3,-1,5,6,2,-57,3
1622149853158093,3,1,-1,-6,37,1,77,-2
1622149853172966,-2,-3,-3,9,-29,10,-32,-12
1622149853172966,1,2,18,11,-10,-23,26,11
1622149853179801,0,-1,-6,-8,10,9,-10,11
1622149853179801,-4,-2,-3,3,7,-22,-13,3
1622149853195040,-2,-1,0,-18,-40,32,19,-15
1622149853195040,-2,-2,-1,6,-17,1,6,2
1622149853203015,-4,1,0,-1,32,30,-20,-39
1622149853203015,9,7,8,-5,-21,9,50,67
1622149853226990,-2,-4,-10,6,21,-31,-20,-8
1622149853226990,-1,-5,4,-5,37,21,-32,-7
1622149853226990,-2,1,3,16,-9,-16,18,-7
1622149853226990,-1,-3,-8,-13,-86,-47,-24,-21
1622149853233078,1,-2,-5,-7,29,37,21,25
1622149853233078,1,-2,1,-2,-23,-37,-21,-1
1622149853239887,1,-1,-2,5,-35,12,48,24
1622149853239887,-2,-2,-3,-3,16,-22,1,-4
1622149853254962,-1,1,-1,-18,14,50,-20,-2
1622149853254962,-9,-5,-9,-2,-3,-9,-52,-44
1622149853263107,0,-9,-13,-12,-31,20,36,13
1622149853263107,1,1,-2,-3,-25,18,-18,-7
1622149853278829,2,1,6,17,13,-16,-21,16
1622149853278829,-6,-5,-13,-18,12,32,22,6
1622149853278829,1,-2,-7,-12,-13,-52,13,11
1622149853278829,2,1,6,14,52,60,-52,-4
1622149853292766,-6,-4,-8,17,-6,-14,-11,-23
1622149853292766,5,3,6,-14,-9,-7,51,10
1622149853299881,0,0,0,3,-47,-49,-32,-9
1622149853299881,-10,-7,-3,-16,-12,-15,36,31
1622149853315601,2,-2,-5,0,-38,12,-5,14
1622149853315601,-5,-2,-6,-6,0,-9,-10,-18
1622149853323102,2,1,10,10,-1,-2,-2,-2
1622149853323102,-5,-3,-5,-9,36,-6,1,-8
1622149853338435,-3,-2,5,-6,2,-24,-19,-15
1622149853338435,1,-3,-12,-3,-16,5,3,14
1622149853345419,1,-1,2,-1,11,7,-46,-7
1622149853345419,-1,-1,-2,-5,-7,5,21,3
1622149853353029,-1,-2,-8,-7,-5,-57,7,-5
1622149853353029,0,-1,1,10,12,8,-3,0
1622149853360572,-5,2,-2,3,22,-14,-27,1
1622149853360572,2,3,17,22,-4,-40,-23,-7
1622149853375497,6,5,4,-4,14,24,25,18
1622149853375497,-1,3,18,7,26,81,-1,-19
1622149853382958,0,-1,-7,19,16,-9,-23,20
1622149853382958,1,-3,-12,-28,-28,-26,47,2
1622149853398837,2,-4,-8,-7,13,-15,-6,6
1622149853398837,-3,1,8,18,-32,-32,2,-38
1622149853398837,3,3,2,-5,8,20,13,32
1622149853398837,-1,-4,-8,-20,-26,-16,-25,-23
1622149853412965,-8,-4,-4,-14,-8,14,1,-5
1622149853412965,3,-7,-26,-2,5,-25,-4,4
1622149853419867,3,7,14,17,-6,-2,58,-20
1622149853419867,0,2,-6,-8,-15,56,-45,22
1622149853435545,-8,-6,-2,3,10,-12,1,3
1622149853435545,-2,-3,-13,-9,-26,-28,-17,10
1622149853442793,-6,-5,-3,8,33,4,-14,-5
1622149853442793,0,1,14,8,1,-10,16,-12
1622149853458723,-7,-1,-3,19,-17,-17,2,-14
1622149853458723,5,3,-3,-27,16,19,-3,9
1622149853458723,1,1,0,-4,-9,-9,-6,21
1622149853458723,1,0,4,13,11,-46,-3,-13
1622149853473098,-3,-6,-4,-6,-23,-5,10,-13
1622149853473098,3,7,13,7,-20,11,-5,13
1622149853479853,-2,-6,-3,0,7,-19,-10,-11
1622149853479853,-2,1,-5,-12,21,60,20,20
1622149853495159,2,4,13,5,-15,-40,-20,-20
1622149853495159,0,-3,-9,4,-27,-32,-12,5
1622149853503090,-2,-5,-7,-19,13,22,22,-11
1622149853503090,7,3,9,37,28,12,1,8
1622149853518726,-3,-2,-1,-9,12,50,6,-2
1622149853518726,-6,-5,-1,-4,34,-46,-14,12
1622149853518726,-5,-2,-19,-22,-56,0,4,11
1622149853518726,1,1,25,21,16,-52,-21,-11
1622149853533063,6,4,-6,-4,23,33,-6,-3
1622149853533063,-4,-6,-4,-4,-66,35,27,6
1622149853539827,-1,1,1,-19,0,-16,-9,-13
1622149853539827,-5,-4,-8,8,3,1,16,-4
1622149853555562,0,0,8,7,27,-23,-19,7
1622149853555562,-1,1,3,4,-42,-73,-43,-10
1622149853562393,-4,-2,-6,-14,-15,26,25,2
1622149853562393,-2,-2,-10,-16,3,52,-3,-16
1622149853578798,3,5,11,-3,2,-3,14,11
1622149853578798,-2,0,-5,20,27,5,23,1
1622149853578798,6,6,15,28,-28,-25,3,-20
1622149853578798,-6,-5,-7,-19,12,-11,-21,7
1622149853592848,-3,-4,0,6,-9,11,16,11
1622149853592848,3,2,7,1,19,69,-3,7
1622149853600480,-2,-2,-1,-7,2,-63,30,2
1622149853600480,-4,-7,-22,-19,-16,-61,-30,-45
1622149853623718,6,4,17,12,-7,4,-10,-9
1622149853623718,-6,-4,0,-2,36,2,17,2
1622149853623803,-5,-2,-2,-2,11,15,-65,-10
1622149853623803,-2,3,-4,8,-4,-57,11,-2
1622149853638757,-1,0,8,-9,-7,-20,8,1
1622149853638757,1,-1,-11,-10,7,-25,-5,-15
1622149853638757,1,-2,-5,5,61,68,24,46
1622149853638757,1,0,1,-25,-34,-6,3,2
1622149853652828,-3,-6,-12,2,17,20,-35,0
1622149853652828,-2,0,9,12,23,36,36,-1
1622149853659967,-3,-5,-12,-6,-10,-10,-46,-9
1622149853659967,-3,-5,-5,10,9,42,11,-16
1622149853674974,-4,-2,-5,-16,8,3,-11,-10
1622149853674974,0,3,14,4,-25,-6,-4,0
1622149853683016,2,2,-3,-5,51,-7,-7,-5
1622149853683016,2,2,2,6,-1,31,19,12
1622149853697788,-7,-8,-14,-13,-59,-46,-18,-21
1622149853697788,-2,-1,-2,-6,24,-9,-38,-1
1622149853698759,1,-1,17,10,-10,14,56,0
1622149853698759,-3,-2,1,9,22,6,-55,-13
1622149853712723,3,2,-9,-12,-35,7,42,20
1622149853712723,-1,1,8,5,10,18,-20,-3
1622149853719860,0,-4,-6,-17,-16,1,20,18
1622149853719860,-4,-7,-7,0,40,70,30,3
1622149853735575,1,1,-2,9,-53,-24,-2,2
1622149853735575,1,-2,-1,-2,25,5,-15,10
1622149853742765,-6,0,4,0,-29,1,22,-24
1622149853742765,1,-1,-6,-12,-17,-13,-15,7
1622149853758721,-2,-4,-7,9,12,2,12,-4
1622149853758721,-3,-4,-5,2,-22,-27,-28,7
1622149853758721,-6,-4,-5,-14,15,10,-3,7
1622149853758721,1,2,-1,0,-34,-6,-10,10
1622149853772999,1,2,7,1,45,8,-2,4
1622149853772999,2,-2,-3,-13,-14,3,4,-3
1622149853779888,2,-2,-5,7,26,-1,-16,10
1622149853779888,0,0,1,-7,-50,-29,-2,-11
1622149853795010,0,0,6,9,25,57,12,-17
1622149853795010,-7,-6,-13,16,-14,2,17,10
1622149853802421,5,3,0,-9,21,0,8,-4
1622149853802421,-3,2,4,-2,7,-42,3,1
1622149853818839,-1,-2,-10,-7,-5,-12,-25,-14
1622149853818839,-2,0,-3,6,1,25,22,-7
1622149853818988,-4,2,13,10,35,-16,8,-17
1622149853818988,1,-3,-8,10,-2,1,-11,16
1622149853833104,-9,-7,-12,-24,-8,-34,-32,-28
1622149853833104,1,-1,-1,-22,5,2,24,28
1622149853839828,0,1,13,10,-10,-1,-24,-7
1622149853839828,2,4,7,-3,-11,-14,18,5
1622149853855159,-7,-7,-6,-6,12,-7,-29,-27
1622149853855159,2,-4,-8,2,9,17,37,7
1622149853862817,2,-1,-1,-16,-51,18,-17,-3
1622149853862817,-2,1,-3,12,-1,9,-12,-27
1622149853878764,4,3,8,9,-1,-6,33,39
1622149853878764,-7,-5,-8,-16,3,-3,-2,-26
1622149853878764,-2,-3,-11,-8,-28,-20,-75,-6
1622149853878764,2,-3,-10,-7,7,48,53,14
1622149853892795,-1,2,6,9,16,5,12,-4
1622149853892795,1,3,1,24,10,13,-25,-23
1622149853899755,-4,-2,-5,7,-28,6,13,21
1622149853899755,-5,-7,-7,-22,35,-1,-43,-7
1622149853915539,0,5,2,2,-1,8,31,12
1622149853915539,-5,-1,0,1,-6,-10,15,10
1622149853923120,-1,0,3,-4,0,-11,-47,-13
1622149853923120,4,1,-5,-3,-27,-54,36,11
1622149853938806,1,2,5,-4,0,18,11,14
1622149853938806,3,4,12,-8,6,-10,-20,-4
1622149853938806,-3,-1,-13,7,13,-1,30,-26
1622149853938806,5,1,16,14,-16,2,2,20
1622149853952692,2,1,0,-12,-38,-60,-25,18
1622149853952692,0,-4,-12,-1,-11,-3,-10,-11
1622149853959673,-2,1,12,-6,40,-39,1,-10
1622149853959673,-3,-3,-6,23,25,21,16,31
1622149853974888,-2,-1,-5,4,-26,29,14,-18
1622149853974888,5,1,6,-1,-15,15,-19,6
1622149853983093,2,-1,3,-17,-65,-26,33,11
1622149853983093,-2,-1,-10,4,26,-1,-20,-31
1622149853998182,-4,-2,1,-3,39,31,-18,2
1622149853998182,0,1,-1,1,-4,47,18,6
1622149854006220,-2,-1,0,17,15,27,9,-17
1622149854006220,2,-1,-11,-42,-8,-1,-26,24
1622149854020963,1,-1,4,9,-12,-26,9,-6
1622149854020963,-3,0,-7,12,21,-21,0,-4
1622149854021870,-3,-5,-1,-10,-19,-45,0,-14
1622149854021870,7,6,19,9,18,-6,-10,32
1622149854035587,-3,-4,-13,9,54,-3,-7,-11
1622149854035587,6,4,5,-18,2,-10,-17,10
1622149854042792,-3,-3,-11,-7,-2,-4,1,-14
1622149854042792,-7,-2,1,8,-7,-1,-15,-27
1622149854057730,-9,-6,1,-4,-12,9,36,49
1622149854057730,6,2,8,15,12,-26,-5,1
1622149854066332,0,-1,-11,-12,-3,44,-11,5
1622149854066332,-3,0,10,-4,-74,-22,14,-9
1622149854072440,0,-3,-4,-18,-19,-14,-36,-18
1622149854072440,-6,-1,5,7,-5,-79,30,6
1622149854079886,4,2,3,5,32,11,21,22
1622149854079886,-3,-5,-11,1,5,-2,-19,0
1622149854095438,2,2,9,12,6,-3,-13,-37
1622149854095438,-1,-1,-5,-17,-72,-12,6,-3
1622149854102582,3,0,-12,7,23,19,-4,1
1622149854102582,1,4,14,4,15,-17,12,13
1622149854118175,-1,-1,-6,-10,-14,28,3,-5
1622149854118175,-1,-2,2,19,6,-3,-9,-6
1622149854126181,-7,-3,3,-26,-54,-12,22,8
1622149854126181,8,-3,-17,10,56,26,-16,-7
1622149854140824,-2,5,-4,-1,21,47,3,-3
1622149854140824,-4,-3,8,0,36,-13,23,-11
1622149854141802,1,4,3,2,-10,-20,-21,6
1622149854141802,-9,-4,-7,-2,-14,-38,-1,-41
1622149854154790,7,-2,2,-2,13,-10,-2,46
1622149854154790,-3,-7,-13,-13,27,38,2,-9
1622149854162997,0,-2,-7,-1,-84,-20,-4,4
1622149854162997,-8,2,29,-8,25,14,18,-4
1622149854177135,1,0,-6,23,18,-45,-63,-10
1622149854177135,-2,-4,-7,-20,6,6,51,-1
1622149854186353,3,-1,1,23,35,5,-20,1
1622149854186353,-3,-8,-12,-23,-29,-30,1,-2
1622149854201188,2,9,23,24,2,14,26,1
1622149854201188,-3,-2,-5,10,32,19,-19,-9
1622149854201188,0,0,6,3,-9,18,-1,-41
1622149854201188,7,1,-3,6,-24,14,26,34
1622149854215627,-3,-2,3,-7,-2,-20,1,-12
1622149854215627,0,-2,-7,-18,-40,-38,-41,5
1622149854222447,-10,-5,-8,-1,29,25,10,5
1622149854222447,-2,-3,2,-8,-46,6,7,3
1622149854238041,1,-4,-7,8,39,19,-2,3
1622149854238041,-2,-2,4,-15,-102,48,15,-18
1622149854244817,1,-2,-1,3,9,-40,-2,37
1622149854244817,1,4,13,7,59,-1,-26,-11
1622149854260787,-1,2,-10,-4,-41,-17,19,0
1622149854260787,-3,2,4,4,19,13,-28,-2
1622149854261749,2,4,9,4,-4,-10,13,-10
1622149854261749,-5,-5,-14,-6,-28,16,4,-21
1622149854274768,-6,-4,-4,-7,22,-20,15,-33
1622149854274768,-2,-2,-8,1,17,31,15,6
1622149854283093,6,2,21,23,-7,-10,-55,1
1622149854283093,-5,0,-2,10,-10,7,5,-6
1622149854298154,-2,-5,-7,-21,-31,-50,4,-11
1622149854298154,0,-3,-9,-13,-6,-9,-4,16
1622149854304903,-3,0,-11,0,39,28,35,-16
1622149854304903,6,1,9,20,2,6,-51,3
1622149854321210,-3,-4,1,-5,-14,4,-9,-5
1622149854321210,8,5,5,-3,-28,-7,20,9
1622149854321210,-5,-6,-17,-6,-2,5,-4,9
1622149854321210,-5,2,2,8,7,16,-5,-41
1622149854336357,0,-1,-8,-9,-16,25,-32,29
1622149854336357,2,1,13,21,9,-8,-6,-18
1622149854342342,3,4,0,-8,-39,-9,2,-4
1622149854342342,1,2,-5,-10,9,3,8,0
1622149854357338,-3,-6,0,-5,29,-50,-33,1
1622149854357338,-5,-2,-10,8,32,18,-6,-9
1622149854365278,-2,-3,7,16,-40,7,19,-15
1622149854365278,1,-6,-12,-27,11,-7,3,6
1622149854381250,5,4,12,14,11,36,19,7
1622149854381250,-2,-2,-6,-6,28,16,-29,29
1622149854381250,-5,-5,-10,-12,-15,-11,23,-35
1622149854381250,-2,-5,-7,8,-37,-33,-15,25
1622149854395239,-1,-2,-5,-9,-11,4,21,6
1622149854395239,-4,-1,4,15,-1,-8,17,-11
1622149854402293,2,7,9,-3,39,39,-18,17
1622149854402293,0,0,-12,-8,-22,-20,18,-13
1622149854418175,-7,-2,-5,-10,15,70,23,17
1622149854418175,4,2,-2,-9,-27,-43,-13,9
1622149854425258,-2,-8,-10,-16,25,17,-7,-2
1622149854425258,-1,1,2,2,-7,10,9,-2
1622149854440871,-3,0,2,4,-37,-18,10,-4
1622149854440871,-3,0,-4,10,42,-10,-1,-20
1622149854441770,2,-4,-1,3,-29,-32,-5,30
1622149854441770,-2,0,-6,-16,-13,19,8,-26
1622149854455595,-3,-4,-5,-12,-27,-33,-48,-2
1622149854455595,4,1,2,-1,11,20,-6,9
1622149854462789,-7,-3,-11,-6,25,17,8,-12
1622149854462789,-7,-5,-2,-6,15,19,-8,3
1622149854478156,5,1,5,24,-14,-6,29,1
1622149854478156,-5,-2,1,4,22,1,-24,-7
1622149854485618,1,1,3,-15,-29,-20,-1,0
1622149854485618,-1,1,3,-4,59,0,15,20
1622149854500983,-1,-5,-11,-10,-65,-2,-8,-33
1622149854500983,-4,-6,-6,-8,-4,-29,-4,5
1622149854501884,-1,2,7,7,28,57,-18,-3
1622149854501884,0,-3,3,10,7,-22,-11,-14
1622149854514943,0,3,13,5,-21,-26,1,-6
1622149854514943,4,1,-1,5,-7,-19,28,35
1622149854522826,1,-1,6,-10,-3,9,-51,-9
1622149854522826,2,-1,-2,11,-6,1,6,12
1622149854537833,-4,0,-6,-7,12,-13,12,-7
1622149854537833,2,-5,3,5,-39,27,3,-10
1622149854544791,-1,1,1,-11,31,0,-9,10
1622149854544791,-2,2,9,1,43,45,11,2
1622149854560747,2,-5,-10,-5,-17,-26,-1,4
1622149854560747,-3,1,1,5,1,-5,-37,-15
1622149854561745,2,-3,-8,-3,-6,-3,7,10
1622149854561745,-2,-1,3,4,-23,-32,-18,-21
1622149854575709,4,5,-2,-2,51,23,34,22
1622149854575709,-7,-1,-4,-12,-11,-26,-19,1
1622149854582689,-5,-1,-9,15,-3,33,10,-24
1622149854582689,1,2,13,-11,-2,3,12,18
1622149854597686,3,1,-6,5,4,28,-45,8
1622149854597686,-3,-2,3,14,11,-54,-21,-15
1622149854605628,-1,-3,-9,-27,24,35,40,-3
1622149854605628,1,0,-2,9,-35,-12,20,8
1622149854620659,1,-1,10,8,-1,4,-16,-12
1622149854620659,-8,-4,-7,-11,-20,26,16,4
1622149854621662,9,2,9,11,-9,-25,5,2
1622149854621662,6,1,-12,-4,28,-25,6,11
1622149854635412,-6,-4,3,-12,-6,25,-14,-27
1622149854635412,4,6,5,1,-6,26,14,26
1622149854642369,-7,-5,-8,2,-18,-42,-6,8
1622149854642369,-4,-3,-3,-1,13,59,16,-7
1622149854657159,9,4,8,4,22,-23,-12,0
1622149854657159,-1,1,4,7,-37,9,24,-8
1622149854665139,0,-1,5,10,7,-8,-22,-22
1622149854665139,-1,-1,-6,4,10,-13,22,19
1622149854683778,-3,-5,-16,-29,-5,-8,-7,0
1622149854683778,2,2,3,1,29,-51,1,-2
1622149854683778,-1,2,1,3,-17,33,1,3
1622149854683778,-5,-4,-3,2,12,-34,-52,-16
1622149854694751,1,0,2,5,-36,-15,39,27
1622149854694751,4,2,-3,-13,21,4,3,1
1622149854702762,-2,-3,-7,11,30,-13,15,4
1622149854702762,3,2,-3,-12,8,28,-21,5
1622149854718193,-7,-6,-4,11,39,44,-29,-20
1622149854718193,-1,0,-3,0,-29,-1,27,-9
1622149854724770,-4,-6,-13,-19,14,-2,-5,15
1622149854724770,0,0,7,-2,-34,4,16,-4
1622149854740508,-7,-8,1,-6,-4,3,-10,-2
1622149854740508,-1,-4,-15,-10,-7,14,-10,9
1622149854741424,-2,-1,8,26,55,11,-2,-38
1622149854741424,1,1,-6,-8,-6,-48,-15,-37
1622149854755205,4,-1,-5,-14,-27,14,43,51
1622149854755205,-5,-5,-2,-3,-9,-40,-10,-22
1622149854763152,-3,-3,-4,-11,-43,-7,-28,23
1622149854763152,-2,1,5,13,24,12,-9,-1
1622149854778147,-4,2,-5,-4,30,-89,15,-18
1622149854778147,2,1,0,-6,-33,14,-19,-18
1622149854785612,1,-2,-3,4,3,-15,10,16
1622149854785612,-6,-1,-2,0,-8,3,-6,-1
1622149854801332,-1,0,3,4,4,5,-3,-3
1622149854801332,-5,-6,-5,-4,24,8,-7,14
1622149854801332,6,4,8,-1,25,-4,42,-32
1622149854801332,-6,-4,-2,-4,-42,-23,-59,11
1622149854815678,0,-1,-1,-13,-8,18,31,3
1622149854815678,-2,-2,0,10,-8,-8,-15,-16
1622149854822977,5,1,6,19,23,-29,23,45
1622149854822977,-2,-4,-9,-15,-90,7,8,0
1622149854837493,0,5,-3,-5,16,11,-17,-14
1622149854837493,1,1,16,-3,42,-35,-17,-12
1622149854845472,-9,0,-13,-6,-48,-80,-35,-4
1622149854845472,8,3,6,2,25,21,-10,8
1622149854860432,-1,-5,-6,3,35,-13,1,4
1622149854860432,0,4,9,14,-40,49,1,-13
1622149854861429,-4,-4,-9,-2,35,-10,1,6
1622149854861429,-4,0,-10,-22,-25,18,-1,14
1622149854875468,-2,-3,-3,-2,16,48,-2,-5
1622149854875468,-1,3,-5,4,39,-23,4,-8
1622149854883118,-3,1,6,-9,-52,0,-28,-19
1622149854883118,2,0,-3,6,-14,-18,31,24
1622149854898168,2,1,1,3,16,5,0,-11
1622149854898168,-1,1,-2,-5,-14,-41,11,11
1622149854905147,3,1,5,-2,-37,-16,-45,-7
1622149854905147,2,1,9,12,58,-5,38,-17
1622149854919875,-3,0,0,-4,-32,8,21,0
1622149854919875,-3,-6,-11,-18,-9,30,-43,0
1622149854928828,-3,-1,-7,1,34,9,40,-20
1622149854928828,-8,-6,-3,1,-64,-30,-35,-22
1622149854935600,2,4,4,0,0,-3,-8,1
1622149854935600,-1,-3,-18,0,15,26,28,1
1622149854942793,-5,-10,6,-9,-43,-3,-31,-9
1622149854942793,4,7,5,5,38,15,38,15
1622149854957832,-8,-3,-6,5,32,10,-1,-31
1622149854957832,6,-2,2,-3,-20,47,-12,-1
1622149854965567,5,2,-7,-7,53,19,30,26
1622149854965567,1,3,16,27,11,31,-7,-4
1622149854979804,-3,-1,-4,-20,-25,-46,-32,-4
1622149854979804,-3,2,-1,6,29,15,15,-4
1622149854988761,2,2,3,6,-55,-24,-20,10
1622149854988761,-2,-4,-8,-19,27,32,59,-1
1622149854994786,2,0,4,22,9,-7,14,-1
1622149854994786,2,2,-3,-14,18,7,-28,17
1622149855002730,-4,1,-1,-2,-7,2,-32,0
1622149855002730,-5,0,-1,7,-1,-21,20,8
1622149855017689,6,0,10,-6,-58,51,-2,3
1622149855017689,-3,-8,-17,-6,9,-18,40,4
1622149855024669,-5,-2,9,-5,24,61,3,-4
1622149855024669,3,-2,-11,-10,-43,-49,-42,3
1622149855039804,3,-1,-2,24,27,16,7,10
1622149855039804,-14,-4,-4,-29,-17,-20,-47,-56
1622149855048755,7,0,-3,-2,7,48,49,42
1622149855048755,-6,-7,-3,11,5,-50,-24,-27
1622149855054739,-3,1,0,-7,-22,-51,-3,8
1622149855054739,2,1,6,-7,-23,35,17,14
1622149855062838,-3,-2,-5,-3,21,-21,40,-23
1622149855062838,-6,-2,4,-2,-4,2,-36,-7
1622149855078210,-2,-4,-2,14,-13,-25,0,4
1622149855078210,1,-3,-7,-2,-19,2,2,9
1622149855085575,2,4,1,-11,-31,-7,8,-5
1622149855085575,3,-1,9,2,44,4,-23,-3
1622149855099872,-2,0,5,-5,-17,13,11,30
1622149855099872,-1,1,4,8,33,-3,-10,3
1622149855108887,-2,-2,0,-6,-12,-55,12,5
1622149855108887,-4,-3,-16,-10,19,46,-18,-10
1622149855131031,1,6,3,-1,0,14,-18,-4
1622149855131031,-1,-4,5,7,-18,14,24,-10
1622149855132030,5,6,1,-2,71,-35,-25,9
1622149855132030,-4,2,14,14,-24,52,23,5
1622149855138843,1,2,4,3,29,25,22,0
1622149855138843,-1,1,-6,-15,-25,-5,-20,6
1622149855144791,-3,-6,-7,14,23,3,-7,-10
1622149855144791,2,-1,-5,-17,1,-27,-26,-30
1622149855168911,4,-3,-9,10,13,4,17,17
1622149855168911,-4,1,3,10,0,26,-9,-3
1622149855169777,-2,-4,-7,-11,2,31,47,22
1622149855169777,1,-2,-7,-6,-14,-16,-20,-12
1622149855183856,-2,1,-2,-3,-54,-47,-25,-32
1622149855183856,-6,2,6,-1,-27,7,-4,4
1622149855183856,-1,-4,-4,-12,-9,-27,-5,9
1622149855183856,2,-4,-12,-1,-7,15,12,19
1622149855198182,-2,-1,3,6,16,10,-12,-6
1622149855198182,2,-2,1,-5,-9,-38,40,5
1622149855205643,-1,-3,-10,10,-22,-20,-65,-11
1622149855205643,-2,10,22,5,-33,-11,39,17
1622149855219882,2,3,6,2,62,17,-30,-9
1622149855219882,0,-1,3,19,1,6,50,9
1622149855228578,-1,3,19,-3,-34,5,4,-7
1622149855228578,-1,-1,-12,8,65,5,6,8
1622149855243538,-3,-5,-7,-12,-54,1,10,-1
1622149855243538,6,2,1,9,5,-56,-41,14
1622149855244536,-1,1,-3,-6,-11,12,15,1
1622149855244536,-7,-5,-1,-5,24,-11,-4,-2
1622149855257526,-1,-4,-10,-13,9,0,-7,3
1622149855257526,-8,-4,-5,11,18,23,-17,-33
1622149855265514,4,-2,-8,-10,-38,5,22,24
1622149855265514,-8,-11,-12,-6,18,-2,2,19
1622149855280559,4,6,6,3,-47,-18,21,-2
1622149855280559,0,-1,0,0,41,46,-68,-10
1622149855288846,-5,-3,-8,-10,36,-18,-6,-7
1622149855288846,-1,-3,0,4,13,12,-6,-37
1622149855303860,-4,-5,2,-11,-11,-28,3,1
1622149855303860,2,0,7,8,8,62,11,9
1622149855303860,-2,-1,-5,3,16,6,7,-28
1622149855303860,3,1,-2,-10,-6,24,16,50
1622149855318166,-6,-4,2,9,21,0,-2,-5
1622149855318166,0,1,-6,-10,-9,-77,14,-4
1622149855325149,-3,-3,-1,0,-22,-9,-2,38
1622149855325149,7,2,-7,-2,-20,9,30,-10
1622149855339803,-2,-3,8,-2,46,-12,-27,-4
1622149855339803,3,4,3,-1,-21,-36,64,25
1622149855348869,-3,-3,-3,7,-7,12,-28,-13
1622149855348869,0,5,17,2,-16,-59,-34,-19
1622149855363865,-4,-7,-20,1,28,15,44,14
1622149855363865,1,-6,-10,-37,-50,-11,-23,-22
1622149855364555,3,2,4,14,11,-11,4,1
1622149855364555,1,-1,1,0,-1,23,18,-1
1622149855378192,-5,-5,-10,7,-54,-41,-25,8
1622149855378192,-1,2,5,-7,16,29,4,8
1622149855385310,4,5,14,3,8,49,5,-9
1622149855385310,-5,-7,-21,-12,-16,-40,-13,-6
1622149855400052,4,2,18,7,16,49,14,4
1622149855400052,-4,-3,-1,9,-17,-10,-25,-8
1622149855408296,-4,-1,-4,-6,-35,3,-27,-9
1622149855408296,0,-2,3,4,29,-11,32,-5
1622149855423828,-7,-4,-13,-6,4,0,-36,-27
1622149855423828,5,1,6,12,-5,-3,17,13
1622149855423828,0,1,5,2,21,19,-22,-13
1622149855423828,3,2,8,-9,-9,-5,-6,-12
1622149855445841,0,5,2,3,19,11,17,2
1622149855445841,-6,0,3,11,-9,-16,8,-17
1622149855446815,2,-2,-12,-22,-3,-16,12,26
1622149855446815,2,-1,-5,9,-8,12,-3,0
1622149855459864,4,3,9,-5,14,-19,-18,14
1622149855459864,-1,0,-3,3,12,-5,-16,-30
1622149855468838,-5,-3,0,-5,-20,12,-17,-29
1622149855468838,-8,-1,-4,2,-32,-19,-6,21
1622149855483852,0,-2,-6,14,5,41,0,0
1622149855483852,-1,-1,0,-5,2,-16,25,14
1622149855483852,-2,-2,-6,5,60,22,-2,-11
1622149855483852,0,0,-4,-14,-48,3,14,-18
1622149855497981,3,1,1,-1,12,-2,-34,9
1622149855497981,1,3,15,10,-28,-7,16,18
1622149855505626,-5,-3,-6,0,-16,4,19,-1
1622149855505626,10,2,-5,-2,64,2,27,-4
1622149855519874,-4,-3,-4,-15,-42,-31,4,18
1622149855519874,1,-6,-13,-5,5,17,-11,14
1622149855528854,-4,1,11,3,-40,-9,-19,-37
1622149855528854,-6,-5,-2,-8,36,31,-34,4
1622149855543844,-1,-3,-11,-1,-61,15,36,-17
1622149855543844,-2,-1,-3,-2,25,19,8,5
1622149855543844,1,-1,0,13,-8,-9,-38,-5
1622149855543844,-3,2,3,-15,-35,-1,11,-19
1622149855566360,-3,1,14,9,-18,-55,24,6
1622149855566360,4,-5,-8,-9,27,47,-31,-1
1622149855566360,0,0,-7,6,23,-30,32,1
1622149855566360,1,-4,-9,-33,-1,35,0,4
1622149855579888,0,3,1,-12,36,-9,9,-28
1622149855579888,-5,3,20,31,56,23,-19,-19
1622149855587874,-1,-5,-1,-3,-34,-24,20,28
1622149855587874,0,2,3,18,6,12,-32,6
1622149855603422,-3,-7,-13,-8,12,-35,20,-3
1622149855603422,1,-3,-12,-32,-16,-11,21,3
1622149855604415,1,4,11,17,55,10,3,-2
1622149855604415,-7,-3,3,-11,-4,-20,-21,-13
1622149855618013,-3,-2,1,-4,7,54,-3,14
1622149855618013,2,-2,-2,-8,-22,-22,19,2
1622149855624817,0,0,4,16,-37,-4,-17,8
1622149855624817,4,3,10,16,-5,21,16,9
1622149855640481,-2,0,-7,-20,3,34,-16,-25
1622149855640481,-5,-5,-10,-2,7,9,-34,-4
1622149855647405,1,-4,-5,1,1,-45,9,19
1622149855647405,-4,1,2,-4,23,15,14,12
1622149855663855,1,-1,2,7,-22,-32,-15,-1
1622149855663855,-1,0,-6,6,3,-6,5,4
1622149855663855,1,2,10,7,27,44,-24,-20
1622149855663855,1,-4,4,20,1,1,35,18
1622149855678202,0,-1,-9,-8,-30,-59,-14,19
1622149855678202,-1,-1,0,-7,6,8,-16,0
1622149855685654,3,-3,-5,-13,-16,-2,-4,-5
1622149855685654,3,0,-5,-20,-52,-95,0,26
1622149855699851,0,-1,1,11,8,36,12,-23
1622149855699851,-4,2,4,4,-10,-49,-6,0
1622149855707832,1,0,2,-8,10,3,-2,17
1622149855707832,1,-2,0,14,28,-18,-14,-4
1622149855723839,4,-3,-7,-15,-14,11,-8,-3
1622149855723839,-4,-6,-9,-14,0,-13,-10,-8
1622149855723839,-2,4,3,11,-9,21,-22,-14
1622149855723839,2,-3,-7,9,49,3,30,3
1622149855738067,-1,-1,-1,9,-22,7,-60,-13
1622149855738067,0,1,8,7,16,22,29,4
1622149855745072,0,2,-6,-6,-19,-28,-8,-8
1622149855745072,2,-1,-1,10,-10,28,-7,1
1622149855760012,-2,2,0,-13,4,-22,25,-17
1622149855760012,2,-4,-12,4,-8,-1,1,34
1622149855768202,-3,-6,2,-14,7,20,19,-8
1622149855768202,-2,6,5,14,8,-23,-42,-27
1622149855783839,1,-2,1,-3,-15,18,21,16
1622149855783839,-4,1,1,-6,-19,77,14,-15
1622149855783839,-4,-1,-2,7,67,-45,-17,5
1622149855783839,-2,-3,-5,-10,-38,6,7,-4
1622149855798183,-3,-3,-5,6,62,88,-3,8
1622149855798183,2,4,11,12,21,-65,-27,0
1622149855805644,-6,-11,-20,-12,-43,44,43,5
1622149855805644,1,-2,-11,-13,-29,33,2,4
1622149855820116,3,7,2,4,-3,-62,-30,-19
1622149855820116,-1,-3,-9,-14,-24,-1,11,4
1622149855828198,-1,2,11,20,10,-7,-4,-6
1622149855828198,-1,-2,-12,-6,-5,2,1,17
1622149855842876,-5,-2,5,-1,15,-2,0,7
1622149855842876,2,1,7,13,-31,-23,9,3
1622149855843855,0,5,-3,-10,4,-21,-22,-27
1622149855843855,-2,-4,0,-10,-45,42,33,17
1622149855857808,0,1,5,14,25,40,-29,-6
1622149855857808,-4,-5,-6,-8,3,18,68,-10
1622149855864808,1,1,2,6,9,23,-40,0
1622149855864808,1,1,6,4,47,-11,43,-11
1622149855879805,-4,-6,6,-8,22,-32,-31,21
1622149855879805,0,-1,-4,8,-30,7,29,-1
1622149855887791,3,3,2,-1,-6,-27,11,9
1622149855887791,-6,-3,-10,-11,27,30,-25,-19
1622149855902780,1,-4,8,12,-27,-6,-17,24
1622149855902780,-4,-3,-7,5,5,-13,0,-1
1622149855910727,-2,0,-5,-20,2,47,-12,-11
1622149855910727,-2,-4,-6,13,-14,-59,-13,22
1622149855918117,-3,-4,-7,-9,6,53,46,-25
1622149855918117,0,6,2,6,25,-81,-48,-11
1622149855925162,5,1,-2,-7,-57,-14,-19,-2
1622149855925162,0,0,11,8,41,-28,-24,-17
1622149855940203,-6,-6,-12,-8,-38,2,41,-6
1622149855940203,2,2,-2,-14,7,10,-71,-9
1622149855948157,3,-4,-5,-2,-7,15,73,12
1622149855948157,-4,5,10,12,9,-6,-58,-13
1622149855964115,-1,-1,1,-13,14,-45,32,2
1622149855964115,2,-1,-1,-1,-8,44,-5,4
1622149855971180,-5,-6,-6,-18,-9,-20,7,42
1622149855971180,-1,2,11,16,-44,34,-9,-38
1622149855977262,1,4,-3,12,31,-1,-43,-9
1622149855977262,-1,-5,-9,-34,31,7,5,-4
1622149855985702,-1,4,-1,22,-53,-89,-10,-14
1622149855985702,0,3,23,11,11,10,7,19
1622149856001372,1,-5,-15,-47,-41,-44,-20,-7
1622149856001372,-1,-3,1,7,2,3,-22,4
1622149856007838,-6,-3,-3,0,26,33,-1,-22
1622149856007838,-10,-3,-20,-9,47,-34,51,-7
1622149856023091,7,3,5,25,1,-5,-6,-2
1622149856023091,-1,0,6,-5,-35,-26,4,4
1622149856031292,3,1,-1,-4,56,10,40,20
1622149856031292,1,-4,-9,-9,-64,17,-22,-17
1622149856046282,-5,-1,3,13,37,-52,-1,15
1622149856046282,-2,0,-2,-6,-51,1,30,3
1622149856046282,0,-1,-4,3,51,4,-19,9
1622149856046282,-5,-1,-7,-9,-47,-16,-33,-21
1622149856060248,3,0,5,13,34,26,10,7
1622149856060248,-1,-1,3,18,3,-60,-21,-11
1622149856068097,-3,-2,3,-16,-45,18,-5,-20
1622149856068097,0,-1,-4,-7,-5,7,18,28
1622149856083162,-2,-4,-7,-13,-36,5,-18,-17
1622149856083162,1,-1,-4,-2,9,9,0,13
1622149856090864,3,-3,-7,-6,11,26,-48,-6
1622149856090864,2,1,8,-8,0,12,40,4
1622149856106378,1,7,9,25,15,-18,-13,-3
1622149856106378,-7,2,5,0,21,30,15,-13
1622149856106378,0,-1,6,-16,7,-10,21,-1
1622149856106378,-1,-2,-10,9,17,4,-54,-5
1622149856120214,-4,3,9,-11,-30,10,28,11
1622149856120214,3,0,-4,5,31,-44,-18,-7
1622149856128226,-6,-4,-5,13,-30,56,39,-7
1622149856128226,-2,-5,-9,-16,19,-23,-21,12
1622149856142860,-3,-3,-2,9,-19,27,28,-23
1622149856142860,3,1,1,8,-54,-2,24,8
1622149856150912,-5,-2,-3,-37,12,15,-10,-22
1622149856150912,7,-1,-1,2,3,11,-30,14
1622149856165809,-2,3,10,3,2,-9,16,2
1622149856165809,1,3,5,23,-3,7,-8,5
1622149856166832,1,-1,-4,13,25,-42,-8,14
1622149856166832,0,1,3,-8,-28,19,-16,-22
1622149856179801,2,0,3,5,24,47,34,50
1622149856179801,-1,-2,-7,-16,-5,-31,-22,-7
1622149856187811,-1,-2,-5,3,7,-75,22,2
1622149856187811,-6,-5,-10,-4,-24,-16,-14,-8
1622149856202765,-2,-6,-12,-7,-31,33,36,-4
1622149856202765,-6,-1,3,2,24,1,-18,-3
1622149856210724,1,1,0,5,-19,53,-17,5
1622149856210724,1,1,-4,-12,15,-25,25,0
1622149856226382,-4,-2,-3,3,-1,-14,-24,-13
1622149856226382,-2,1,4,-5,-40,13,-5,-3
1622149856226382,-4,-2,-2,8,2,-2,19,-17
1622149856226382,3,2,10,-12,25,11,20,-6
1622149856241994,-3,-6,-20,1,-21,-29,-54,-11
1622149856241994,-4,1,18,-4,-2,19,-5,6
1622149856247977,2,5,3,25,34,54,-3,8
1622149856247977,-1,-5,-6,-8,-44,16,9,14
1622149856262894,-3,-3,-4,0,30,15,-9,-11
1622149856262894,-2,-8,-12,-4,12,24,10,7
1622149856278006,1,-3,8,3,-21,-6,-12,7
1622149856278006,-2,5,22,22,10,-34,43,2
1622149856286353,1,-1,-4,-10,24,-14,15,-9
1622149856286353,4,-5,-9,9,-16,16,7,43
1622149856286353,-5,-1,5,-15,-15,4,-16,-13
1622149856286353,-1,6,13,7,4,-26,19,-3
1622149856299868,-4,-1,-2,-7,-11,-27,0,-2
1622149856299868,-2,-1,-2,-2,31,-56,18,6
1622149856307497,-1,-5,-10,0,-28,-9,-2,-4
1622149856307497,-4,-1,-8,-14,40,11,-18,13
1622149856322407,0,-1,3,-4,-17,5,-10,-15
1622149856322407,-1,-5,-7,-5,-11,18,-9,13
1622149856331354,4,2,5,4,0,-5,-2,1
1622149856331354,-4,-5,2,14,2,9,0,2
1622149856346317,-1,2,-1,-16,-32,-48,-29,-1
1622149856346317,4,0,-9,3,31,0,24,-12
1622149856346317,-3,-4,2,-15,-25,39,-13,4
1622149856346317,0,0,-3,20,23,-36,8,-18
1622149856369954,4,4,12,7,15,22,-18,25
1622149856369954,-8,-6,-8,-14,-3,63,42,-9
1622149856371198,-5,0,-3,16,1,-38,-41,-4
1622149856371198,7,-3,-10,-26,1,-27,0,2
1622149856383171,-1,-2,-12,-9,-6,10,9,-10
1622149856383171,-3,0,10,3,-50,-30,-31,-13
1622149856390779,-7,-5,-12,-9,3,21,10,-3
1622149856390779,-2,-1,0,2,8,8,2,2
1622149856406383,2,3,6,13,35,2,-18,4
1622149856406383,-2,0,-2,-19,5,1,13,-32
1622149856406383,5,-2,-5,17,-4,0,24,24
1622149856406383,-7,0,10,-9,-1,-69,-38,-87
1622149856420402,2,-1,1,-4,-36,63,45,52
1622149856420402,7,3,7,14,66,-60,-47,-35
1622149856428175,-4,-4,1,-5,4,-19,-31,0
1622149856428175,1,2,0,3,-3,5,22,-11
1622149856442816,-2,-2,-4,1,23,37,-21,-10
1622149856442816,-2,0,-5,2,18,-2,30,-3
1622149856450795,-3,0,-1,-12,-15,-42,38,18
1622149856450795,2,-3,-2,7,2,35,-54,27
1622149856466384,-2,-4,-3,-7,-24,-11,9,-8
1622149856466384,6,0,-1,1,-1,38,-19,12
1622149856466384,-1,1,-1,-6,1,-13,13,-30
1622149856466384,3,-1,2,5,-16,32,21,44
1622149856480035,-8,-7,-8,3,12,7,-5,-34
1622149856480035,1,-1,7,11,36,21,-18,20
1622149856488238,7,6,5,-9,-29,-22,-3,-2
1622149856488238,-4,-4,-15,-11,-51,5,20,7
1622149856503179,0,-1,0,0,4,27,-35,-31
1622149856503179,-3,-3,-1,-3,-15,-6,14,30
1622149856511438,-4,-4,-8,-6,-23,8,10,-7
1622149856511438,-3,-3,-2,13,11,-11,-14,10
1622149856526427,4,-4,-4,-7,-13,-39,-3,15
1622149856526427,-14,-5,-6,-16,8,22,8,-40
1622149856526427,3,-2,4,-9,1,-21,-25,8
1622149856526427,-1,0,-4,14,23,18,-2,-10
1622149856539807,-4,0,-1,-5,-6,6,24,10
1622149856539807,-3,1,7,7,-43,-16,-23,-15
1622149856548190,-1,-1,-5,-2,1,-57,12,-3
1622149856548190,5,8,12,17,8,29,-20,6
1622149856562290,1,-2,-5,-20,29,-22,8,13
1622149856562290,4,0,2,14,9,17,2,-4
1622149856570971,-2,1,-8,3,18,0,-25,-31
1622149856570971,-1,-5,4,-16,-22,9,38,38
1622149856586390,0,7,4,14,58,-51,-90,-11
1622149856586390,2,-4,-8,-7,-35,52,74,41
1622149856586390,0,1,-1,7,-44,45,14,-14
1622149856586390,1,-2,-4,-12,10,-7,-18,-22
1622149856600355,-1,-4,-3,3,-15,-15,-6,20
1622149856600355,-1,3,2,6,43,30,7,-12
1622149856607336,-2,-5,-5,-32,6,-13,-12,9
1622149856607336,-7,-6,-2,10,8,32,44,5
1622149856623162,5,2,6,-15,-31,-9,-9,2
1622149856623162,-6,-3,-12,-16,7,-34,-28,-27
1622149856631387,-2,0,13,16,-5,18,29,-14
1622149856631387,1,0,-6,-14,-16,-5,-33,-10
1622149856645450,-2,0,5,9,-3,-3,62,1
1622149856645450,1,3,-3,-17,85,-30,-25,-3
1622149856646422,-7,-3,4,23,-36,-5,-32,21
1622149856646422,0,-6,-15,-21,-11,6,12,6
1622149856660541,1,-2,6,22,3,13,5,4
1622149856660541,-1,2,-4,-3,-29,-28,18,-13
1622149856676441,-2,4,1,-24,35,79,14,23
1622149856676441,-5,-5,-8,24,15,-27,-15,-9
1622149856682966,-6,0,-5,-28,-18,33,5,-24
1622149856682966,3,-4,-1,6,-46,0,-16,14
1622149856690903,0,0,7,33,50,-17,-33,-5
1622149856690903,2,3,9,-2,-70,-9,40,0
1622149856706410,3,-3,-7,7,59,31,53,25
1622149856706410,-5,-2,0,-13,-42,-41,-101,-36
1622149856706410,-4,-3,-12,-26,2,-3,45,-4
1622149856706410,7,0,-6,17,6,17,14,16
1622149856719808,-7,-6,1,6,3,-7,17,19
1622149856719808,9,5,0,-16,-34,-58,-64,-17
1622149856727793,-4,-4,0,4,32,14,30,-1
1622149856727793,-5,-6,-5,-14,22,9,-49,-42
1622149856742799,1,-1,-6,0,-70,11,21,3
1622149856742799,-2,-1,2,-14,26,56,20,39
1622149856750777,-1,0,-2,-7,-11,-71,-22,-18
1622149856750777,-5,-3,-6,6,47,32,-10,-1
1622149856765760,2,2,0,4,-42,-36,9,-8
1622149856765760,4,-3,-4,12,-30,28,34,29
1622149856766732,2,-3,-11,7,-10,16,-52,2
1622149856766732,-1,1,9,-14,-3,-36,-8,7
1622149856779837,0,5,0,5,-14,-35,12,-18
1622149856779837,-7,-3,2,12,-9,5,26,1
1622149856788288,6,1,1,-16,11,4,25,13
1622149856788288,1,-1,-11,-14,-29,-10,-11,7
1622149856803229,-5,-3,-3,8,28,-17,-31,-21
1622149856803229,2,6,8,9,13,5,7,3
1622149856811456,3,0,15,16,20,22,14,6
1622149856811456,-6,-4,-11,-9,9,-19,-33,-17
1622149856834573,4,1,-5,-37,-49,-10,-19,-1
1622149856834573,-5,-1,3,22,49,73,53,-16
1622149856834573,0,-4,-8,-9,-19,-57,-75,-24
1622149856834573,5,6,13,3,14,10,30,22
1622149856840560,-1,-4,-3,6,-1,11,-22,-6
1622149856840560,-4,-6,-13,-22,-16,-28,12,13
1622149856847564,-4,1,4,6,2,25,-4,-22
1622149856847564,-3,2,1,5,-9,11,8,-8
1622149856862850,4,1,5,6,14,-26,-38,-7
1622149856862850,1,0,-2,-17,21,1,11,-5
1622149856871419,4,-4,-15,5,-5,13,29,14
1622149856871419,-3,-1,20,-8,-51,-25,-11,-1
1622149856884985,-8,-2,-6,18,-14,30,9,11
1622149856884985,0,0,1,-3,-3,16,3,-1
1622149856893887,0,4,5,-9,-5,33,-35,13
1622149856893887,-1,-5,-7,11,-1,-8,15,-17
1622149856899872,-1,-3,0,-6,31,23,-21,38
1622149856899872,4,-1,10,2,-15,-49,24,16
1622149856907876,-4,-2,-6,4,11,-15,-1,-5
1622149856907876,3,-2,-7,3,4,9,12,5
1622149856922966,-2,1,6,-10,17,35,-13,-19
1622149856922966,4,0,7,25,-2,-16,25,10
1622149856929858,-5,-6,-6,-26,-6,-5,19,-3
1622149856929858,1,2,12,22,73,7,-19,0
1622149856944854,-2,3,9,22,-21,-36,-9,-29
1622149856944854,2,-8,-16,-16,-44,17,15,29
1622149856953880,-1,-2,-2,-3,0,-48,-5,-46
1622149856953880,1,3,-3,-7,36,14,-37,6
1622149856968897,1,-1,-11,-19,5,12,26,-8
1622149856968897,-2,-6,-13,8,-7,-17,-35,-10
1622149856968897,-2,3,17,28,-20,-51,1,6
1622149856968897,0,2,-2,-11,-16,-16,-20,-1
1622149856982976,2,-1,1,-11,-22,5,24,-5
1622149856982976,-5,2,0,3,4,-2,-39,-11
1622149856989946,-3,-6,-12,18,-25,7,-9,-9
1622149856989946,1,2,5,-6,7,9,41,10
1622149857005712,-1,-4,-7,10,69,-7,17,2
1622149857005712,-3,0,8,-12,-24,9,12,-2
1622149857013940,2,1,3,9,-6,12,-17,-19
1622149857013940,6,0,-5,-8,33,-9,0,4
1622149857028831,-6,0,2,5,-35,-12,14,0
1622149857028831,-4,-2,-7,-5,7,-11,-7,-8
1622149857028934,3,1,-3,0,21,39,45,29
1622149857028934,-1,-2,-7,15,-31,-5,-24,1
1622149857043143,3,1,8,-4,36,23,2,20
1622149857043143,-3,2,6,-40,-55,-36,4,-12
1622149857050125,-4,0,-1,24,63,-20,-50,-27
1622149857050125,3,-8,-7,-20,-45,16,95,42
1622149857065749,-5,-3,-11,-11,-22,-41,-50,-53
1622149857065749,2,-2,7,21,27,-25,-4,18
1622149857073890,-1,7,3,-5,31,36,24,14
1622149857073890,-7,-3,-8,3,-26,-17,0,-12
1622149857088896,0,-4,-4,-19,-26,6,35,3
1622149857088896,3,3,-5,-3,31,24,-64,5
1622149857089808,2,-1,2,-1,-14,25,12,4
1622149857089808,-1,1,-2,-6,-4,-10,-52,-12
1622149857103196,-1,-1,-2,1,39,24,72,23
1622149857103196,-6,-2,-2,-3,-32,-62,-61,-61
1622149857109882,4,1,13,12,-13,53,43,36
1622149857109882,-1,4,6,3,-8,10,-17,-23
1622149857125287,0,-5,-9,-8,7,-26,-29,3
1622149857125287,-4,-1,-1,2,9,44,5,2
1622149857133891,0,1,7,31,-5,-44,-13,-14
1622149857133891,-8,-5,-4,-24,-32,5,-3,-2
1622149857148862,6,3,-2,-9,-3,5,-3,9
1622149857148862,-1,-2,-4,6,27,30,42,-8
1622149857148862,2,-1,-9,-34,-21,-13,-20,8
1622149857148862,-3,-3,4,28,-18,-61,-33,-1
1622149857162950,-1,1,3,10,-16,27,15,5
1622149857162950,-1,-3,-6,1,17,28,-10,-2
1622149857169876,-1,-1,8,-22,-22,63,14,-14
1622149857169876,2,0,-6,2,25,-4,-12,0
1622149857185729,-5,-4,13,2,-31,-1,-49,-12
1622149857185729,-2,2,-2,-6,16,-19,56,-6
1622149857193820,-1,-5,-16,-2,30,22,-23,15
1622149857193820,-1,-4,-2,-26,28,-2,9,1
1622149857208843,6,4,19,26,-33,14,-13,-8
1622149857208843,-5,-1,1,2,12,21,-8,13
1622149857208843,4,-4,-10,-10,-11,-59,3,-5
1622149857208843,0,-4,-8,-13,11,25,12,-5
1622149857223245,1,1,2,-2,16,-42,23,10
1622149857223245,5,0,-2,15,22,-1,-33,1
1622149857229887,-4,0,-9,-19,-40,-5,3,-20
1622149857229887,0,2,12,12,4,-19,28,32
1622149857245299,-1,-2,-7,-16,-52,7,29,7
1622149857245299,-1,-4,0,4,15,-31,-23,5
1622149857253514,-4,-1,-1,16,-11,19,23,-3
1622149857253514,-4,-1,-9,-9,29,51,-38,-32
1622149857268842,-1,-1,-3,1,23,-10,10,18
1622149857268842,-4,0,4,-7,-35,-23,-26,-10
1622149857268842,6,6,17,-28,-15,-27,-3,21
1622149857268842,-8,-1,3,28,-26,-16,48,-7
1622149857282700,-3,-5,-10,13,54,-1,-51,-8
1622149857282700,-4,-6,-8,-22,-98,5,10,-35
1622149857290685,3,3,-4,3,9,2,-4,29
1622149857290685,-7,0,2,-12,-23,54,-2,4
1622149857305676,-1,-1,-5,-13,11,-22,-31,-24
1622149857305676,-2,-1,-1,10,11,-18,61,-5
1622149857313623,-5,-1,1,6,12,6,5,0
1622149857313623,2,-4,-1,9,-22,-21,-21,-14
1622149857328824,-2,-3,-5,12,43,-8,-32,6
1622149857328824,1,2,2,-35,9,10,31,17
1622149857328824,-1,-1,-3,5,-3,13,-7,0
1622149857328824,4,1,-1,-6,-3,-87,-3,8
1622149857342842,-1,2,8,8,-9,24,9,-28
1622149857342842,6,0,2,19,-10,-26,-31,33
1622149857349822,-5,-3,-9,-29,-32,2,5,-10
1622149857349822,5,0,11,15,75,46,22,2
1622149857365792,-3,2,-4,-3,-67,-9,-21,1
1622149857365792,-1,1,24,24,17,36,-18,-44
1622149857373753,1,-2,-10,-39,18,-20,19,35
1622149857373753,2,0,3,8,-24,6,-9,-1
1622149857388450,-1,-1,-4,-1,1,-8,15,1
1622149857388450,-2,-3,-12,-1,22,23,-12,11
1622149857389424,-6,-7,5,2,-35,1,-15,-12
1622149857389424,1,-2,-13,-12,21,32,17,0
1622149857402752,-2,-4,-9,-13,-37,-51,6,5
1622149857402752,0,3,0,10,28,-13,5,33
1622149857410559,-1,1,4,10,19,-20,-23,-13
1622149857410559,-1,-4,-12,-20,-44,1,4,-7
1622149857425240,-4,-7,-4,-5,-5,56,-1,8
1622149857425240,1,0,-4,3,25,28,21,3
1622149857434337,0,3,9,27,-3,-28,6,-5
1622149857434337,2,4,-6,-18,1,-22,1,3
1622149857448433,-4,-5,-11,-19,-31,-7,-49,-58
1622149857448433,3,7,16,16,-26,32,31,24
1622149857449433,3,-1,-5,-11,-27,-53,-53,-12
1622149857449433,-3,-4,-12,-1,-15,31,67,30
1622149857463190,2,1,14,0,38,-34,17,10
1622149857463190,-5,-4,-17,-28,3,8,-25,-13
1622149857469891,-4,-2,-1,23,5,3,21,-4
1622149857469891,3,0,-3,-9,-40,4,-19,-20
1622149857485835,3,1,0,11,8,-29,19,26
1622149857485835,-2,-4,-3,1,3,-53,-1,12
1622149857493816,0,3,6,-2,27,50,-19,28
1622149857493816,-6,-5,-7,-6,46,-54,-56,-52
1622149857508829,-2,-1,-2,4,-26,70,37,16
1622149857508829,1,-4,-10,9,-5,-23,6,8
1622149857508829,-2,1,-2,-16,19,-11,11,-7
1622149857508829,2,-1,10,39,-9,-8,-21,9
1622149857523253,-2,-1,1,-35,0,-11,-3,0
1622149857523253,-1,1,-10,-3,-7,-30,17,-1
1622149857529783,-5,-6,-5,5,12,-5,4,-30
1622149857529783,1,3,6,8,-16,17,4,38
1622149857545336,-6,-3,-9,3,47,-9,-5,-10
1622149857545336,-1,-5,2,-10,-42,29,37,37
1622149857553892,-4,-3,-2,-4,-3,-93,-41,-38
1622149857553892,-8,-4,-5,-16,12,-11,-26,-1
1622149857568896,5,4,4,24,-16,16,26,20
1622149857568896,0,2,1,13,29,5,-39,-28
1622149857568896,9,-2,-7,-25,-32,11,0,21
1622149857568896,-7,-3,4,9,27,-32,-5,-5
1622149857583245,1,-2,-7,9,-44,-2,-21,-9
1622149857583245,-1,3,12,27,50,26,22,-6
1622149857590791,5,6,11,-5,-2,-12,4,2
1622149857590791,5,3,4,7,-4,26,31,-29
1622149857604999,-2,-4,-5,-17,15,-7,-30,15
1622149857604999,-4,-1,-1,0,6,25,-21,-9
1622149857613883,-3,-2,-12,11,4,48,37,3
1622149857613883,0,3,7,-14,-17,-12,46,5
1622149857628862,7,6,9,15,44,-29,-43,11
1622149857628862,-9,-5,-4,-25,-95,39,-2,-28
1622149857628862,-2,-5,-11,3,16,19,10,-3
1622149857628862,1,-1,10,13,-17,-29,-8,7
1622149857642848,3,5,14,6,19,5,2,-15
1622149857642848,0,-3,-14,5,38,-17,-12,-4
1622149857649830,-3,-4,-3,-29,-39,-31,28,41
1622149857649830,0,-4,-13,-3,-38,11,-16,-12
1622149857666484,-1,5,28,38,24,15,13,-7
1622149857666484,3,2,5,6,-10,-66,-21,-34
1622149857673891,0,0,-8,-4,23,-60,15,57
1622149857673891,1,-1,0,5,-52,-4,25,-20
1622149857687904,7,-1,-5,-19,19,-46,-14,13
1622149857687904,-2,0,-1,-12,-18,38,-40,4
1622149857688903,-3,2,8,32,30,0,33,-16
1622149857688903,2,-3,-15,-29,0,-4,-36,1
1622149857703097,-6,-2,-6,-4,-29,-1,47,-9
1622149857703097,1,1,4,9,49,-15,-20,-4
1622149857709872,-4,-4,-4,-1,-77,11,-24,-10
1622149857709872,-4,0,5,2,49,14,-15,16
1622149857724882,-1,-5,-22,-19,2,36,29,3
1622149857724882,-1,-1,-9,-10,-23,-54,9,5
1622149857733901,-6,-4,7,2,44,47,-11,-5
1622149857733901,3,4,3,1,30,-16,-9,0
1622149857748277,-2,-2,3,7,-23,-3,-2,1
1622149857748277,-3,-3,-7,-12,-25,5,55,37
1622149857756496,-1,3,-2,-4,-5,-49,-29,-17
1622149857756496,3,2,0,15,-4,20,10,-5
1622149857762559,-4,-4,-7,-8,30,-64,-48,10
1622149857762559,2,0,0,-13,11,10,46,-6
1622149857769842,4,4,13,23,20,53,5,6
1622149857769842,-2,-1,-1,-12,-42,-4,2,20
1622149857785814,-8,2,7,8,33,48,-3,-29
1622149857785814,5,-1,-2,-4,-24,-54,-26,25
1622149857793820,-1,-2,-5,-9,-62,12,17,-12
1622149857793820,-5,-3,-6,6,18,31,-19,0
1622149857807414,1,-2,5,-9,3,20,3,-24
1622149857807414,-11,-7,-5,2,-3,-12,-6,-4
1622149857816481,-4,-3,-5,-24,5,57,38,10
1622149857816481,2,-2,-8,-16,-3,-31,-54,-1
1622149857822415,3,-2,-5,13,32,21,29,3
1622149857822415,-1,-2,0,2,-6,16,-11,5
1622149857829863,2,7,21,17,-19,-6,22,-13
1622149857829863,-8,-5,-9,-31,4,-17,-7,-3
1622149857844917,-5,-5,-7,-2,42,-9,17,-27
1622149857844917,6,-2,-5,5,-37,18,16,35
1622149857853921,4,-1,-5,1,-25,0,-17,4
1622149857853921,5,7,9,-13,42,7,-19,-7
1622149857868261,-1,0,-7,20,-16,-1,35,19
1622149857868261,-1,-2,1,-4,23,9,-26,-27
1622149857876463,-2,-2,5,8,-8,-12,-22,-33
1622149857876463,-1,-7,-7,4,-7,20,-5,0
1622149857883217,-1,-1,0,2,-37,-18,29,24
1622149857883217,4,0,9,14,2,-10,-32,-10
1622149857890774,-3,-5,-15,2,20,38,20,17
1622149857890774,-2,4,4,-31,2,-58,-11,-19
1622149857905467,-5,3,1,14,-11,17,18,-13
1622149857905467,-1,-6,-1,12,-1,8,-19,13
1622149857913882,1,0,6,8,3,15,-18,-4
1622149857913882,-3,-2,-4,4,23,0,57,27
1622149857928278,2,0,-6,-17,0,18,-24,-29
1622149857928278,-1,7,7,-10,-13,-22,-7,-19
1622149857936286,-5,-6,-7,16,42,2,-29,-7
1622149857936286,0,-3,0,17,-22,38,27,15
1622149857951316,-1,2,9,-16,2,-14,-37,15
1622149857951316,-1,2,-1,-7,30,6,12,16
1622149857951316,-3,-1,-5,-8,58,-50,21,-30
1622149857951316,-12,-2,-4,14,-31,-4,-43,-41
1622149857965868,4,-5,-6,-2,-12,5,15,20
1622149857965868,1,6,3,6,7,-10,-45,-15
1622149857973900,2,-1,-11,-13,-14,16,38,23
1622149857973900,5,1,5,13,-4,21,30,12
1622149857988301,-2,-6,-2,-20,-20,-22,-61,-34
1622149857988301,-6,-4,-6,3,17,18,41,4
1622149857996282,3,4,-4,-20,5,-22,-27,-10
1622149857996282,0,-1,-3,9,-24,0,4,9
1622149858011351,0,-1,-15,-26,4,47,7,11
1622149858011351,1,1,23,7,-4,-50,24,-5
1622149858011351,1,3,9,23,16,26,-32,-4
1622149858011351,-5,-1,1,6,20,-12,10,-17
1622149858024901,-3,-2,-5,-2,-46,-37,-5,25
1622149858024901,4,-6,-12,-9,5,20,14,-20
1622149858033884,-8,-3,-2,-2,5,-14,-17,3
1622149858033884,-1,-3,8,1,41,35,-31,-11
1622149858048342,4,4,2,12,-48,15,-10,2
1622149858048342,-5,-1,-6,-13,20,-12,22,-9
1622149858064002,2,-5,2,2,-47,45,23,33
1622149858064002,-3,-3,0,-5,19,4,-6,-4
1622149858071429,-5,0,5,6,-1,23,-13,15
1622149858071429,1,2,-3,-12,-19,31,5,-26
1622149858071429,-2,-1,-1,20,14,-41,-28,-14
1622149858071429,0,1,-4,-34,13,-12,-2,1
1622149858085813,-4,-3,1,14,23,18,-2,-2
1622149858085813,-8,-3,-2,-12,4,16,33,10
1622149858093795,1,-3,-5,14,-17,-34,-64,-34
1622149858093795,6,2,2,2,9,32,8,23
1622149858107759,-1,-2,-3,-21,-22,-42,25,-14
1622149858107759,2,-4,-11,-3,0,0,10,2
1622149858116446,-5,-6,-8,-4,45,18,-12,-2
1622149858116446,-6,-3,-6,6,-47,-53,40,7
1622149858131399,2,2,12,10,-34,2,-34,-9
1622149858131399,-3,0,1,-2,12,17,17,-1
1622149858131399,-2,-3,-22,-32,0,-26,10,-9
1622149858131399,7,0,2,6,-1,8,-8,0
1622149858145300,-1,-1,-5,-2,-12,-34,3,3
1622149858145300,1,2,11,13,-18,-39,-29,-24
1622149858153278,6,4,-2,-8,15,48,41,39
1622149858153278,-9,-7,-10,-21,-60,-19,-32,-36
1622149858167940,-1,-2,3,7,10,-1,5,-4
1622149858167940,3,0,-1,14,22,15,-2,12
1622149858176435,-2,2,7,4,-6,-12,12,-17
1622149858176435,0,0,4,7,22,-67,-8,-6
1622149858190496,4,3,9,-7,26,5,-4,25
1622149858190496,2,-3,-8,-16,-23,36,-6,-14
1622149858191466,-5,-1,8,17,31,-31,-15,-3
1622149858191466,-1,-3,-6,16,3,14,25,14
1622149858205871,-3,0,2,8,-12,24,29,4
1622149858205871,-2,-1,-11,-28,24,-18,-26,-9
1622149858213747,-1,-3,-3,-17,-43,-71,-22,15
1622149858213747,10,5,24,6,-13,54,27,30
1622149858228283,-2,0,-16,-10,29,12,-17,-53
1622149858228283,-1,-2,7,17,-9,11,-25,3
1622149858236470,2,-1,-6,-4,10,45,11,6
1622149858236470,-6,-3,-15,-10,9,-105,-65,-15
1622149858251408,-6,-6,-2,-1,-32,59,56,31
1622149858251408,4,3,-3,-9,-9,7,-25,0
1622149858251408,-4,-1,16,23,-9,7,41,-17
1622149858251408,2,-1,-8,-8,4,-1,-38,10
1622149858265855,2,1,1,-9,12,-30,12,-6
1622149858265855,-3,-6,-12,-6,30,29,7,6
1622149858273271,0,-3,-7,-33,-50,-18,-21,0
1622149858273271,-5,1,5,21,19,-3,54,21
1622149858288328,-3,-3,-9,-12,17,-22,-29,1
1622149858288328,1,-1,3,14,3,0,-2,14
1622149858296308,-5,0,-7,-15,-18,26,35,12
1622149858296308,4,2,4,2,15,13,-25,-12
1622149858311411,-1,-2,0,-2,17,-24,58,27
1622149858311411,1,3,5,2,-18,-11,-24,-3
1622149858311411,2,-4,-11,5,-8,4,-23,-2
1622149858311411,-4,-4,2,-11,3,12,44,14
1622149858325337,-4,1,-9,-21,-21,-1,-40,-11
1622149858325337,4,-4,-2,11,-38,-47,22,-2
1622149858333233,-1,-2,-2,-9,1,-1,-35,-6
1622149858333233,-2,-3,-9,7,35,26,9,-2
1622149858348309,2,3,5,13,-50,-13,-12,-11
1622149858348309,-4,-6,-3,-5,-3,47,7,8
1622149858356502,3,4,9,3,25,-2,2,-8
1622149858356502,-4,-4,-3,-2,4,4,30,-3
1622149858370973,-2,-1,-6,3,24,0,-47,-18
1622149858370973,-6,-2,1,4,33,15,-18,-4
1622149858371870,-1,-1,2,-5,-15,9,26,-11
1622149858371870,3,5,9,9,22,-9,12,23
1622149858385851,3,-4,-1,15,0,0,-2,9
1622149858385851,-4,-2,7,-1,-11,-36,-28,-10
1622149858392861,-1,-3,-4,-27,20,56,-17,14
1622149858392861,-1,2,-2,12,-2,-62,-29,-6
1622149858407978,2,-5,-7,-36,4,15,60,19
1622149858407978,2,5,4,23,22,-66,-44,-1
1622149858416504,-2,1,3,1,-27,36,21,-12
1622149858416504,1,-3,-6,-17,-41,38,-11,11
1622149858431367,-3,-6,-7,15,3,-30,-33,-25
1622149858431367,-7,-2,6,-15,-28,43,41,-18
1622149858431367,3,1,0,0,9,-64,-31,42
1622149858431367,-2,-1,-9,9,-9,44,13,-18
1622149858445328,-2,3,17,2,-41,-12,-13,-14
1622149858445328,-3,-3,-11,-18,15,17,31,9
1622149858452524,4,2,3,10,-21,-32,-8,-8
1622149858452524,1,-4,3,-4,22,70,-28,11
1622149858468278,-6,-6,-6,11,54,36,19,26
1622149858468278,4,4,7,0,-12,-19,-23,-7
1622149858476525,1,0,-1,-1,-26,18,26,1
1622149858476525,1,0,-6,-27,-11,27,-40,-30
1622149858498857,-1,-3,-7,2,-28,-58,-29,11
1622149858498857,-4,-3,-5,13,22,36,19,-9
1622149858499828,-3,-1,3,24,-6,1,7,-17
1622149858499828,-1,-1,-3,-12,2,-16,-16,-41
1622149858505784,5,5,10,9,23,13,-10,18
1622149858505784,-4,-6,-11,-12,-36,-3,38,13
1622149858512399,4,2,11,23,-12,-9,-17,-32
1622149858512399,-5,-1,6,-14,-6,9,19,11
1622149858529811,3,1,-8,-10,7,-2,-6,-19
1622149858529811,0,-2,-5,24,-30,-5,-21,4
1622149858536506,-7,-4,-4,-17,61,3,11,-6
1622149858536506,-2,-1,0,15,-36,-27,21,7
1622149858551385,9,2,8,0,14,8,-18,22
1622149858551385,1,0,-4,-11,3,-36,15,5
1622149858552309,-5,-4,-3,4,18,-4,-56,2
1622149858552309,-2,-1,-1,-16,-9,-7,80,0
1622149858565844,0,-2,3,-1,-68,9,-12,-6
1622149858565844,-3,1,4,12,13,-94,-31,-29
1622149858572419,4,-1,-7,-19,-35,-35,-19,13
1622149858572419,5,2,-2,-3,5,33,1,18
1622149858588232,0,2,-1,11,56,14,63,-4
1622149858588232,-3,-4,-8,-22,1,9,-20,-13
1622149858595866,-3,-1,7,12,-1,-18,27,3
1622149858595866,1,1,-5,3,-5,-15,-68,1
1622149858619604,-2,-1,0,-4,15,-21,31,-16
1622149858619604,2,-2,-4,12,-9,-5,0,11
1622149858619803,-2,3,4,-2,6,1,17,2
1622149858619803,-1,6,-2,-2,-34,-56,4,10
1622149858625792,1,-2,3,7,4,21,-39,-7
1622149858625792,-2,-4,0,-10,0,12,11,2
1622149858633226,-5,-2,-3,-13,19,60,-2,-33
1622149858633226,4,-2,-2,15,-7,12,28,56
1622149858648309,-10,-5,-10,-12,-50,-15,-92,-34
1622149858648309,0,1,1,2,25,23,11,9
1622149858655799,1,0,-5,-11,19,31,44,14
1622149858655799,-3,2,11,16,24,20,1,-31
1622149858671367,2,-2,-10,2,6,-14,0,14
1622149858671367,5,1,-9,-10,-9,56,-2,11
1622149858671367,-9,-4,9,11,-56,-57,-56,-11
1622149858671367,1,-7,-12,1,18,9,0,-22
1622149858685309,0,0,2,-18,-35,-37,12,7
1622149858685309,-2,2,7,3,15,-17,-8,-2
1622149858693310,4,-3,-8,6,23,73,3,5
1622149858693310,-7,-1,5,10,-25,-55,-7,-20
1622149858708247,1,-2,-4,-1,-38,16,9,21
1622149858708247,-4,-2,-3,-12,-19,-10,23,19
1622149858716225,-2,-5,-14,-23,5,0,18,2
1622149858716225,3,9,27,12,14,17,-33,-37
1622149858730531,-4,-6,-9,12,-40,18,10,29
1622149858730531,3,8,4,-12,44,-15,27,1
1622149858738941,-1,-4,1,9,-19,-12,-15,3
1622149858738941,1,0,-9,-18,-42,21,23,-4
1622149858745767,-3,1,11,3,33,-16,0,-15
1622149858745767,-4,-2,5,13,26,25,-19,-4
1622149858752770,2,1,-5,-6,11,-21,6,34
1622149858752770,2,-2,3,-6,-45,-23,7,-3
1622149858768293,-4,-3,-11,-19,3,3,-26,-18
1622149858768293,-1,-5,-1,4,-8,13,-32,-8
1622149858775789,-6,-5,-8,1,-7,-28,18,20
1622149858775789,-2,-9,-8,-10,-23,-22,6,-17
1622149858789854,1,5,6,0,58,9,0,14
1622149858789854,-8,-2,-4,-1,-1,-1,21,-19
1622149858798857,8,5,6,6,-15,-53,-53,-6
1622149858798857,-4,-2,-12,-6,-11,38,-5,8
1622149858805833,-1,0,12,2,65,-40,18,-13
1622149858805833,0,-2,-3,-6,-55,15,-32,1
1622149858812976,0,0,-3,2,12,-20,22,-3
1622149858812976,-3,-3,-1,4,31,-4,-19,15
1622149858828283,-3,-1,-4,-7,-60,15,11,-34
1622149858828283,0,-3,1,-1,44,-20,1,13
1622149858836505,-4,-5,-2,-10,-19,22,29,-24
1622149858836505,4,1,3,19,32,-19,8,41
1622149858850560,-2,2,-1,-13,21,-5,-19,-29
1622149858850560,-3,-4,-5,-13,15,-14,5,26
1622149858858258,5,3,3,-5,-23,38,73,6
1622149858858258,-2,3,5,5,7,-77,-66,-23
1622149858865864,-1,-2,-2,18,-17,5,23,28
1622149858865864,0,-1,1,-18,4,52,-10,-9
1622149858872874,-1,-3,0,29,71,-13,-18,1
1622149858872874,-1,-6,-8,-6,9,36,0,10
1622149858887973,3,8,12,-4,-13,18,10,-23
1622149858887973,5,-1,-7,6,11,-55,-33,12
1622149858895953,-7,0,4,0,4,18,3,-9
1622149858895953,4,-2,-13,-9,-18,-18,-12,3
1622149858910402,-3,-4,5,21,26,30,-4,3
1622149858910402,-6,2,4,3,9,-67,39,-41
1622149858918988,4,3,2,-2,-30,10,-36,20
1622149858918988,-6,-2,-3,-18,13,11,-10,-11
1622149858933890,4,-1,6,20,32,56,43,35
1622149858933890,-5,-5,-13,-5,-44,8,-30,-19
1622149858933890,-1,-1,-3,-12,29,-4,-31,-18
1622149858933890,-3,1,7,-2,-27,8,44,-1
1622149858948320,4,-4,-6,-8,19,13,2,4
1622149858948320,1,-1,3,18,-43,-39,10,-13
1622149858955845,-1,-3,-10,-2,19,-13,-57,14
1622149858955845,-2,-1,2,-9,10,67,37,5
1622149858970885,-3,1,0,11,1,-41,-36,-27
1622149858970885,9,3,11,0,-44,9,15,31
1622149858978983,-3,-2,-3,-5,9,3,15,-16
1622149858978983,1,-3,-6,-5,21,6,47,36
1622149858993844,-2,-3,-15,-19,-16,-25,-1,-4
1622149858993844,-4,-3,7,-5,16,7,-12,-17
1622149858993844,-3,5,10,12,21,-12,11,9
1622149858993844,2,-2,-2,10,-34,-30,-19,-29
1622149859007887,-4,-3,0,6,7,-1,6,20
1622149859007887,8,0,-8,-17,-2,-12,2,1
1622149859015816,1,-2,0,-3,-46,32,11,-11
1622149859015816,-4,0,5,22,65,-38,-14,-16
1622149859030820,0,-2,-13,-12,4,-26,-24,4
1622149859030820,-8,3,9,3,-6,31,-5,-21
1622149859038918,10,1,12,14,16,-7,16,3
1622149859038918,-6,-5,-16,-28,-9,9,-19,-10
1622149859053773,-3,-3,4,-16,-4,22,-20,-5
1622149859053773,-4,-2,3,21,23,7,-3,-2
1622149859054746,-6,-2,-2,-10,5,-24,22,-17
1622149859054746,-2,0,1,3,-24,-9,-31,-45
1622149859068327,10,-2,-6,5,-15,-27,0,55
1622149859068327,-1,-2,-6,-15,-43,39,4,1
1622149859076526,0,1,0,5,-14,-65,-30,2
1622149859076526,1,-5,-2,2,36,49,12,-4
1622149859089883,1,8,3,-16,-22,10,21,-30
1622149859089883,0,-2,-5,-6,-5,17,5,16
1622149859098885,-4,-6,-12,-10,-55,-5,-6,2
1622149859098885,-3,5,14,21,6,-12,4,9
1622149859114025,-3,-4,-3,-15,-5,2,-7,-17
1622149859114025,-1,-2,-3,25,59,11,7,14
1622149859114025,-3,2,1,-12,3,9,-23,-23
1622149859114025,-6,-2,-5,-3,-37,14,2,16
1622149859127992,-1,-3,1,8,14,-34,20,31
1622149859127992,2,-1,-7,0,16,-8,-9,12
1622149859135879,2,-3,-10,-27,24,-11,-12,-6
1622149859135879,1,-4,-7,5,-27,0,9,3
1622149859150877,-4,-5,1,20,1,-3,-22,-8
1622149859150877,1,1,6,12,-41,5,55,4
1622149859158729,-4,-1,-1,-4,-32,-42,-47,-20
1622149859158729,4,-1,0,-15,18,27,7,9
1622149859173758,2,1,-1,5,-19,8,-15,-10
1622149859173758,-5,-4,-3,-7,36,17,-5,-8
1622149859173758,0,-1,2,12,-23,4,51,-2
1622149859173758,-4,0,-1,-3,15,-4,-32,2
1622149859187893,-3,-1,-1,-1,28,45,38,-8
1622149859187893,3,2,1,-3,24,16,-8,1
1622149859196510,-5,-5,8,-2,2,35,15,-14
1622149859196510,1,4,1,23,47,-5,-30,-5
1622149859210785,5,3,4,2,-6,-15,44,10
1622149859210785,-6,-3,-11,-13,-10,-11,-25,9
1622149859218970,-1,1,-4,-3,-11,-5,8,11
1622149859218970,2,-6,-7,3,0,-23,8,-14
1622149859233969,-4,1,5,-6,-4,-4,-7,-4
1622149859233969,-2,-3,-9,-10,43,-35,-38,-6
1622149859233969,-4,0,3,5,-20,22,11,3
1622149859233969,2,1,11,3,8,14,14,11
1622149859248359,0,-1,-6,-2,-6,-32,-45,-18
1622149859248359,-1,-2,-2,-39,-4,5,15,-7
1622149859255892,-2,-4,-7,0,34,-10,-17,6
1622149859255892,-2,-2,-3,9,17,2,-19,-12
1622149859270882,-6,1,0,7,-23,21,22,-5
1622149859270882,0,7,17,10,-20,-2,-18,-27
1622149859278069,2,3,-3,-7,14,-6,20,17
1622149859278069,-4,0,-8,-8,6,-5,-19,10
1622149859293850,4,-1,10,8,-15,-41,48,35
1622149859293850,-2,-2,-7,-13,2,1,-36,-27
1622149859293850,-1,-1,-7,-1,31,87,31,3
1622149859293850,2,5,12,-10,-61,-29,-21,1
1622149859307876,-5,-7,-12,1,42,9,14,-15
1622149859307876,-4,-3,0,-5,-67,-9,-3,9
1622149859316527,1,-1,-6,-16,-27,-4,-10,1
1622149859316527,-1,-2,-5,-7,-16,-1,-4,-11
1622149859338995,3,5,4,2,14,65,-5,22
1622149859338995,-3,1,-2,-8,4,8,25,2
1622149859339994,2,-4,-9,-2,-4,-50,-27,-9
1622149859339994,0,2,15,13,6,11,8,-19
1622149859353981,-2,-1,1,8,-4,-42,-56,-15
1622149859353981,-2,-7,-17,-25,16,57,10,2
1622149859353981,2,1,7,15,19,3,77,29
1622149859353981,5,2,-7,-29,-42,-24,3,8
1622149859368351,-6,-5,-2,-9,17,9,-8,-22
1622149859368351,7,1,4,29,7,1,4,15
1622149859376558,-3,-2,-5,-9,-51,-21,-38,-42
1622149859376558,-3,-3,-3,7,7,-12,45,35
1622149859389869,3,-1,-6,4,-8,-2,18,20
1622149859389869,3,-2,-3,11,34,-4,-32,-26
1622149859398988,-1,1,8,2,-68,-21,-36,-3
1622149859398988,-6,-3,0,3,12,7,26,-3
1622149859413859,-8,-3,-9,-24,-19,13,-27,-60
1622149859413859,0,-1,1,8,-29,-18,0,31
1622149859414859,1,-1,-6,4,43,14,37,7
1622149859414859,1,-2,-3,-21,-40,-6,-15,9
1622149859428244,-4,-3,-2,1,-19,19,-49,-24
1622149859428244,-6,0,15,1,0,-6,16,-31
1622149859436314,-1,-5,-1,16,32,-4,3,27
1622149859436314,4,3,-6,-5,66,-3,-44,-23
1622149859451245,5,-2,1,-19,-51,-6,35,34
1622149859451245,-2,-2,-2,22,22,-12,-3,5
1622149859458225,-1,2,16,13,6,33,-19,9
1622149859458225,0,2,-3,-10,38,46,34,-6
1622149859473378,-2,-1,-7,-11,-3,-34,-14,8
1622149859473378,1,-2,2,-6,18,30,-25,9
1622149859474315,-5,-1,-8,7,40,14,8,-9
1622149859474315,1,-2,7,10,-1,-26,-1,27
1622149859488322,3,-2,0,1,-25,-1,16,13
1622149859488322,-3,-4,-6,-3,21,3,34,11
1622149859496304,1,1,-3,-3,20,5,14,19
1622149859496304,3,1,2,6,31,-9,8,-62
1622149859510716,1,5,7,-6,-28,1,-3,-6
1622149859510716,-1,-3,-8,1,-16,-71,-29,23
1622149859518986,2,0,3,5,-12,-29,1,9
1622149859518986,-1,-5,-10,-39,-20,14,21,8
1622149859533873,-3,-3,-4,0,0,24,23,2
1622149859533873,0,5,8,15,-5,-20,-19,-42
1622149859533873,-1,-3,-3,-16,16,16,-24,-6
1622149859533873,-5,-6,-1,18,-63,-32,-10,25
1622149859547867,1,4,7,3,23,-1,13,-10
1622149859547867,-1,1,-4,-7,5,-4,18,26
1622149859555819,-5,-2,-7,-6,-28,0,2,-22
1622149859555819,-4,-2,-6,-12,18,-1,-33,-8
1622149859570889,1,0,0,12,32,23,-3,5
1622149859570889,-3,1,10,-4,-20,21,51,-3
1622149859579006,-1,2,0,2,12,17,-35,-8
1622149859579006,3,-1,-3,-4,-11,32,23,12
1622149859593011,-9,-5,-3,2,35,7,-70,-28
1622149859593011,0,-1,-4,8,0,9,85,36
1622149859594009,5,-1,-2,-7,-6,7,-18,-6
1622149859594009,-5,0,-2,-6,-66,-10,-15,2
1622149859607995,1,0,-2,6,29,-16,-6,-15
1622149859607995,3,2,9,4,-41,-4,-18,-15
1622149859615863,1,-7,-13,-29,16,-33,5,23
1622149859615863,-4,0,-4,12,-16,3,21,-38
1622149859629859,2,1,0,5,9,30,10,11
1622149859629859,2,1,-2,-15,-1,-18,-41,-3
1622149859638005,-4,-4,-15,-2,2,-9,26,-6
1622149859638005,-2,4,31,10,22,-7,-3,-19
1622149859652983,-2,-3,-6,13,-3,-14,8,12
1622149859652983,0,-2,-1,-11,-31,19,23,12
1622149859660874,-3,-5,-7,-20,-23,-46,-57,-36
1622149859660874,3,-3,-1,6,-5,-2,23,20
1622149859668352,-5,0,0,-9,20,2,9,2
1622149859668352,-4,1,9,4,-43,-3,-24,-3
1622149859675855,2,3,-1,3,15,29,34,-3
1622149859675855,1,0,5,12,14,-19,-8,21
1622149859689848,6,0,1,7,37,33,-59,-23
1622149859689848,-9,-5,-16,-23,-20,10,38,21
1622149859698997,-5,-4,5,2,-6,3,-43,1
1622149859698997,-2,4,-4,-1,-19,-18,18,4
1622149859713032,2,-5,-5,-14,-20,8,31,-13
1622149859713032,1,-5,-5,14,23,-5,-27,-5
1622149859721418,3,4,12,7,-17,11,2,-12
1622149859721418,-5,-10,-20,-6,37,6,-28,14
1622149859728352,-7,-1,-8,-12,-50,-40,-4,-13
1622149859728352,3,1,5,3,30,-1,60,7
1622149859735814,-2,-2,5,2,-30,-3,-2,15
1622149859735814,1,0,0,14,10,-70,-1,-10
1622149859750804,-3,-1,-3,-3,-7,41,9,-5
1622149859750804,-3,-6,-19,-9,-14,-26,-66,-9
1622149859758758,0,2,15,16,25,10,8,7
1622149859758758,-5,2,-3,-19,12,64,-7,-4
1622149859773346,6,1,5,7,-21,-58,-12,-11
1622149859773346,6,-2,-9,15,11,27,17,38
1622149859781488,-7,-8,-6,-18,-8,6,4,15
1622149859781488,5,-2,-7,2,7,27,-22,-19
1622149859787381,-1,0,5,-2,-39,-44,-33,0
1622149859787381,1,2,5,5,54,54,15,-35
1622149859795838,0,-2,-2,6,-79,-6,19,47
1622149859795838,-2,0,-8,-25,-18,3,-34,-23
1622149859810874,-2,2,12,12,26,-14,38,12
1622149859810874,4,-2,-2,5,54,18,-10,2
1622149859818999,1,3,-3,0,-51,-22,35,-2
1622149859818999,-4,-4,0,7,17,-31,-47,4
1622149859833298,-2,-3,-9,-10,47,9,11,-8
1622149859833298,-4,1,10,-2,-54,12,-16,-30
1622149859840778,-4,3,4,-3,55,5,34,0
1622149859840778,10,-5,-8,-12,-7,-19,10,17
1622149859855917,-1,-3,-4,37,-7,4,15,10
1622149859855917,0,1,-5,-10,10,32,-20,-16
1622149859856842,0,-3,8,10,26,-88,-22,-1
1622149859856842,-5,-1,-1,-3,-12,13,22,-6
1622149859869865,-3,-3,-5,-8,6,35,-15,4
1622149859869865,2,4,7,9,-52,7,45,21
1622149859878767,-1,-5,-8,-7,-6,-22,-22,-31
1622149859878767,-4,-1,2,-4,21,-5,10,34
1622149859892846,4,1,5,-2,-1,-29,-10,15
1622149859892846,-6,-4,-3,12,-31,-44,8,-32
1622149859900852,6,2,1,-18,2,17,-21,-8
1622149859900852,-1,-2,-2,13,9,17,21,2
1622149859915851,-1,-4,-4,-8,-34,-37,0,-16
1622149859915851,-4,2,-3,-10,-42,31,-22,-5
1622149859916881,0,4,24,30,33,37,-24,-5
1622149859916881,-2,-1,-5,-15,-20,2,39,-16
1622149859930806,0,-3,-9,-16,4,-15,-29,16
1622149859930806,-5,-2,6,-8,38,27,48,-9
1622149859938943,6,-1,-16,-18,-11,-1,-31,9
1622149859938943,0,5,19,56,-11,15,-8,-8
1622149859952774,-6,0,-3,-13,12,-7,43,1
1622149859952774,-4,-3,-3,-11,-36,12,-29,1
1622149859960851,-6,-8,-19,-2,-18,-14,11,-11
1622149859960851,-1,0,15,-4,14,-16,25,8
1622149859975741,-2,1,-6,5,22,-1,0,3
1622149859975741,-2,-2,-5,-15,-1,9,-36,10
1622149859976738,2,0,2,24,32,19,57,25
1622149859976738,-3,-4,-9,-9,-50,-17,-24,-26
1622149859990820,0,-3,-2,-32,10,0,-6,22
1622149859990820,0,-1,-5,5,-9,-12,20,5
1622149860005807,-10,-8,-4,6,5,15,-19,-4
1622149860005807,6,6,7,-8,-12,2,-4,34
1622149860012758,-2,-2,1,6,-2,5,-28,-46
1622149860012758,-1,0,-3,1,25,-28,-51,-18
1622149860020735,-1,4,9,17,54,-10,30,0
1622149860020735,2,-4,-11,-25,-16,-7,-21,-7
1622149860036543,-4,-3,-7,-9,25,-12,-15,10
1622149860036543,1,-4,-1,1,-40,-8,14,3
1622149860036543,-2,0,-1,-11,22,37,-13,-30
1622149860036543,-4,-3,-7,-4,24,20,-18,32
1622149860050533,4,1,7,0,-86,12,8,-18
1622149860050533,-2,0,-7,-4,41,-19,-10,-4
1622149860058488,-3,0,8,9,-47,-14,23,2
1622149860058488,0,0,-7,-12,39,-7,-9,-21
1622149860073393,-2,-1,1,-6,24,-1,33,15
1622149860073393,-1,0,4,22,13,-6,-21,-10
1622149860081390,6,1,-3,-5,-26,-3,8,35
1622149860081390,-2,4,3,8,20,12,-10,-13
1622149860096360,-6,-3,-1,0,-33,4,20,-11
1622149860096360,2,3,2,-14,22,-44,-16,8
1622149860096360,0,3,8,23,5,28,-2,-15
1622149860096360,-5,-7,-5,-10,-21,-8,2,-5
1622149860110293,2,3,0,14,27,53,10,16
1622149860110293,-2,-4,0,-7,-7,-93,-8,2
1622149860119007,-4,-4,-13,-14,-23,1,-14,-13
1622149860119007,0,1,3,21,41,21,4,0
1622149860133282,0,0,3,-4,-26,9,-3,1
1622149860133282,0,-3,-2,-5,47,27,8,-1
1622149860140779,-4,-3,-6,-5,-22,-8,-10,-11
1622149860140779,-2,-1,-2,1,-6,-14,8,2
1622149860155739,-2,-4,-8,-5,-3,-11,-6,0
1622149860155739,0,1,3,3,-8,-8,0,-1
1622149860156736,-1,-2,-4,-6,10,0,0,-1
1622149860156736,2,2,-1,-8,-30,12,-1,-1
1622149860170085,-1,-2,-2,2,0,9,-4,-1
1622149860170085,0,3,6,3,3,1,5,4
1622149860179039,-3,-4,-6,-10,1,5,-9,-6
1622149860179039,-5,-5,-7,-2,-18,-6,5,-1
1622149860192766,-1,1,1,1,17,-8,-4,-1
1622149860192766,-1,-2,-8,-4,14,-7,2,3
1622149860201444,0,0,-5,-22,-6,-6,-4,-4
1622149860201444,-3,-5,-1,9,22,-25,-4,-3
1622149860216531,3,6,4,-7,-43,-41,2,7
1622149860216531,1,0,2,5,-80,33,12,2
1622149860216531,-1,0,2,1,9,6,-2,-4
1622149860216531,-1,-3,-4,3,0,-5,10,16
1622149860230874,0,3,5,1,10,15,-27,-24
1622149860230874,-1,-3,-5,-3,8,-5,5,-1
1622149860239016,0,0,-2,-9,-5,-18,-3,-2
1622149860239016,1,2,1,1,-13,15,3,3
1622149860252791,-4,-3,-3,3,6,-1,0,6
1622149860252791,1,-3,-2,-3,4,-8,-3,-1
1622149860260748,0,1,3,-2,15,8,-2,-2
1622149860260748,-3,-2,-2,2,-2,-4,-4,-5
1622149860275707,1,-1,0,-8,-1,0,7,3
1622149860275707,-2,0,4,13,27,3,-5,-6
1622149860276704,0,-3,-6,-13,-35,-5,3,2
1622149860276704,1,-1,1,14,17,7,0,-4
1622149860290667,1,-2,-2,21,21,-4,2,1
1622149860290667,1,-1,0,-21,-29,0,2,4
1622149860298625,-3,-3,3,23,48,-4,-8,-6
1622149860298625,-1,0,0,-17,-23,1,-1,-4
1622149860312615,0,-2,-2,2,3,1,0,2
1622149860312615,2,6,1,-4,-10,-3,-4,1
1622149860321064,-2,-2,0,-4,-9,-5,-11,-9
1622149860321064,-3,2,6,3,-2,-2,13,23
1622149860336416,0,-2,-2,-3,13,-4,-8,-19
1622149860336416,1,-2,-3,4,4,-3,-2,0
1622149860336416,1,3,3,-1,-1,2,1,5
1622149860336416,0,-1,-7,-9,-11,-1,-9,-8
1622149860350383,-2,1,1,-1,23,6,5,9
1622149860350383,-3,-3,-3,-15,-36,0,-1,3
1622149860358388,0,-1,-3,3,1,-2,-4,-9
1622149860358388,1,1,3,0,-34,2,1,-5
1622149860374446,-4,-5,-1,13,28,6,0,1
1622149860374446,-2,-2,-3,-1,1,-2,0,-3
1622149860381584,0,1,-2,-6,0,5,0,4
1622149860381584,1,-1,-2,-14,-6,1,-3,-6
1622149860396504,1,3,1,4,-20,-5,3,5
1622149860396504,-2,1,-1,3,8,0,-1,0
1622149860396504,0,2,1,2,8,5,3,2
1622149860396504,-1,-2,-2,1,10,3,-1,-1
1622149860410915,-3,-3,-4,-10,-20,0,-3,-2
1622149860410915,-3,-4,0,5,14,6,-2,-2
1622149860419020,-1,-1,-5,-9,-10,10,4,2
1622149860419020,-1,-1,4,7,20,0,-8,-9
1622149860441893,1,-1,1,-7,-14,14,5,4
1622149860441893,0,0,2,5,7,5,0,-1
1622149860442891,0,-2,0,5,0,1,2,0
1622149860442891,-1,0,-5,-3,-3,-2,1,-2
1622149860455893,-2,-2,-5,-6,-7,-19,-6,-3
1622149860455893,0,0,-5,-7,4,-13,2,0
1622149860456893,-1,-2,0,1,-2,-14,-2,-3
1622149860456893,-1,-1,1,2,3,-9,-2,-3
1622149860470879,-1,-1,0,-1,-6,-9,2,1
1622149860470879,-3,-2,-1,2,2,-7,-1,-3
1622149860479093,0,-2,1,1,-1,-8,-1,-1
1622149860479093,-1,-3,-2,-2,-2,-5,0,-1
1622149860492868,0,0,-1,-3,-10,-4,0,-1
1622149860492868,-1,-3,-8,2,1,-2,-4,-1
1622149860500821,0,0,9,-4,-1,-2,-1,1
1622149860500821,0,1,-2,-1,0,0,0,-1
1622149860516557,-4,-2,-2,0,-2,-2,-2,0
1622149860516557,-3,-2,-1,-1,2,0,-2,-2
1622149860516557,-3,-3,-7,-2,0,-3,-2,-1
1622149860516557,0,-2,-5,-2,0,-1,-1,-3
1622149860530919,-1,0,5,0,-2,2,1,0
1622149860530919,0,-1,2,0,2,-1,-3,-1
1622149860539013,0,-2,-1,-2,-5,0,0,1
1622149860539013,-2,-1,-1,1,-4,2,-1,-3
1622149860552876,1,-2,-6,0,-2,1,0,0
1622149860552876,0,0,9,1,1,-2,0,-1
1622149860569047,0,0,-4,1,1,-2,-1,-1
1622149860569047,-1,-1,-1,-1,1,1,-1,-2
1622149860575886,-2,-2,-2,-2,-2,1,1,-2
1622149860575886,1,0,-1,0,-1,-1,0,1
1622149860576867,0,-1,-3,0,-2,0,0,0
1622149860576867,-1,1,-1,-2,-1,-1,-1,-1
1622149860590785,-1,-1,-2,-4,-1,-1,0,0
1622149860590785,1,-1,-2,1,-1,2,-2,0
1622149860599020,0,-2,-1,-1,-3,-3,0,-1
1622149860599020,0,-2,-3,-1,0,-2,-1,1
1622149860612873,-1,-1,2,1,-1,1,-1,-1
1622149860612873,-2,-2,-4,-6,0,1,0,-2
1622149860621444,-1,1,-2,1,1,2,-1,-2
1622149860621444,-1,-1,-1,-4,-1,0,-2,-3
1622149860635842,-1,-3,-3,-3,0,0,-1,-1
1622149860635842,-1,-1,4,5,0,0,-1,0
1622149860643824,-2,0,0,-3,-2,-3,-3,-1
1622149860643824,-2,-1,-2,0,0,-2,-1,0
1622149860650798,-2,0,-3,-6,-3,-2,-1,0
1622149860650798,0,-2,-5,-1,0,-2,0,-1
1622149860657779,-1,-1,-1,-1,-1,-3,-2,-1
1622149860657779,0,0,1,-1,0,0,-1,0
1622149860672442,1,-1,2,2,-2,-2,-5,0
1622149860672442,-1,0,-3,-1,-2,-1,2,0
1622149860680971,0,0,0,-1,-2,2,2,0
1622149860680971,-1,-3,-1,1,-1,-1,-2,-1
1622149860695897,0,-1,-2,0,-1,-1,-1,0
1622149860695897,0,-1,-1,-1,-1,-2,-2,-3
1622149860704011,-2,-3,-2,-2,-3,-2,0,0
1622149860704011,-1,-1,-1,-1,0,-2,-2,-1
1622149860710001,-2,1,1,-1,0,-1,-2,-2
1622149860710001,-1,-1,-1,1,-1,-2,0,-1
1622149860718380,0,-1,-2,-1,-1,0,0,-1
1622149860718380,0,-1,-2,-2,-2,-2,0,-2
1622149860733322,0,-1,2,0,0,-1,-2,-2
1622149860733322,0,0,-2,-2,-1,0,-1,-1
1622149860740803,-1,-2,-1,0,-2,-1,-1,-1
1622149860740803,-2,-1,1,1,0,1,-2,-3
1622149860755088,-1,-1,-3,-2,0,1,0,-1
1622149860755088,-2,-1,-2,0,0,-1,-1,-1
1622149860764033,0,0,0,0,1,-2,-1,-1
1622149860764033,-1,-2,-2,-2,0,-2,0,-1
1622149860770906,0,0,-2,-1,0,-1,0,-1
1622149860770906,-1,-1,-2,-1,-2,-1,-1,-2
1622149860778407,-1,0,-1,-1,-1,-1,-1,0
1622149860778407,1,-1,-1,-2,0,-1,-1,0
1622149860792899,-1,-2,-1,0,0,-1,-3,-1
1622149860792899,-2,0,-2,-1,0,-1,0,-1
1622149860801539,-1,-1,0,1,-1,1,-2,0
1622149860801539,-2,-2,-3,-1,-2,-2,0,1
1622149860815924,-1,-1,-1,-2,-1,-2,1,0
1622149860815924,1,-3,0,-2,1,0,-2,0
1622149860823851,-1,-1,-1,-1,0,-1,0,-1
1622149860823851,-2,0,-3,-2,0,-2,0,-3
1622149860838840,-1,0,-2,0,-2,0,2,-1
1622149860838840,-2,0,-1,0,-2,1,-2,-2
1622149860839837,-1,0,-2,-1,0,-2,-1,0
1622149860839837,0,0,-1,0,0,-1,0,0
1622149860852827,-2,-1,1,1,-1,2,-1,-1
1622149860852827,-1,0,0,-1,0,-2,-2,-1
1622149860860807,-2,-1,-1,-2,-1,0,0,-1
1622149860860807,0,-2,-1,-1,-3,-1,0,-2
1622149860875403,0,0,0,-1,0,1,0,0
1622149860875403,-1,-1,-1,-3,-2,-1,-1,1
1622149860883465,-1,-1,-1,-2,-2,-2,-2,-3
1622149860883465,0,-2,0,-2,-1,-1,-1,-1
1622149860899683,0,-1,-2,-1,-2,-2,-1,-1
1622149860899683,0,0,0,0,-1,0,-2,0
1622149860899683,0,0,-2,-2,0,1,0,1
1622149860899683,-2,-1,0,0,-3,1,0,0
1622149860913387,1,0,-2,-1,-3,-2,0,0
1622149860913387,-1,1,-1,-1,-3,-2,-1,1
1622149860921580,-3,-3,0,-1,-1,0,0,-2
1622149860921580,-1,0,1,-2,-1,0,-1,-3
1622149860935872,-1,-2,-2,-1,0,-2,-2,-2
1622149860935872,-2,-3,-1,0,0,-1,-1,0
1622149860943853,-2,0,-3,-3,-2,-2,-1,1
1622149860943853,0,-2,-1,0,0,-3,-1,0
1622149860959013,0,0,0,-2,-2,-1,-1,-2
1622149860959013,-3,-2,0,-2,-2,0,0,-2
1622149860959834,-1,-1,-1,1,0,-1,-2,-2
1622149860959834,-1,-1,-1,-1,0,-1,-1,-2
1622149860972412,-1,0,0,-1,0,0,-1,0
1622149860972412,0,-1,-2,-1,-1,-2,-2,-1
1622149860981540,0,-1,1,1,-1,-1,-2,0
1622149860981540,-1,-2,-1,-1,-1,1,0,0
1622149860995324,-2,-2,1,1,-1,0,0,0
1622149860995324,0,-2,-2,-1,0,-3,-2,0
1622149861003467,-1,0,-1,1,-1,-1,-1,-1
1622149861003467,0,-2,0,-1,0,-3,-1,0
1622149861018803,-1,-1,-2,0,-1,-1,-1,-1
1622149861018803,0,-2,-2,-1,-2,-1,-1,0
1622149861019828,-2,-1,-1,-1,-1,-1,-2,-3
1622149861019828,-1,2,-2,0,-3,-2,-1,-2
1622149861033336,-1,-1,0,-1,-2,-1,-2,-1
1622149861033336,-1,0,0,1,-2,0,-1,0
1622149861040804,0,-2,1,0,-2,-1,0,-1
1622149861040804,0,-1,-3,-1,0,-1,-2,-1
1622149861055093,-1,0,-2,-1,1,-2,-1,0
1622149861055093,1,0,-2,-1,0,-2,-1,-2
1622149861064059,0,0,-2,-1,-2,1,1,0
1622149861064059,-1,0,-1,-1,0,1,0,0
1622149861078943,-2,-1,0,1,0,-1,0,-1
1622149861078943,0,0,1,-1,-1,-1,0,-2
1622149861079781,-1,-1,-1,0,0,-3,-1,-2
1622149861079781,-1,-2,1,-1,-1,-1,-2,-1
1622149861092796,-2,-1,-4,-1,-1,0,0,-2
1622149861092796,-1,-3,-2,-2,-1,-2,0,0
1622149861100986,-2,-1,-1,-1,-1,-1,-2,-2
1622149861100986,0,0,-1,-1,-1,-1,-1,0
1622149861115886,-1,-1,-2,1,0,-3,-1,-1
1622149861115886,-2,-1,-1,-1,-1,-1,1,0
1622149861123790,-2,-1,-2,-1,-1,0,-1,-1
1622149861123790,-1,-3,-2,0,-1,-1,0,-1
1622149861138969,-1,-2,-1,-1,-1,-1,0,1
1622149861138969,0,-2,0,-1,-2,0,1,-1
1622149861139777,-1,-1,-1,-1,-1,-3,-1,-1
1622149861139777,-1,1,-1,0,-2,-1,0,-1
1622149861152750,-1,0,0,-3,-3,0,0,-3
1622149861152750,0,0,-1,-1,-1,0,-1,-1
1622149861160729,-1,-1,-1,-1,-2,0,0,0
1622149861160729,-1,0,-1,0,-1,-2,-1,-2
1622149861175698,1,-1,-2,-1,0,-2,1,-1
1622149861175698,0,0,-2,0,0,0,0,-1
1622149861183901,1,-1,-1,-2,0,-1,0,1
1622149861183901,-1,-1,0,-3,0,0,-1,-1
1622149861199057,0,-1,-1,-1,-1,-2,-1,-1
1622149861199057,-1,-1,-1,-1,0,-1,0,-2
1622149861199892,0,0,0,-1,-1,-2,0,1
1622149861199892,-1,-1,-2,0,-1,0,1,-1
1622149861213406,-1,0,0,-1,-1,-2,-1,-1
1622149861213406,-2,1,0,-1,-1,-1,-2,-2
1622149861221572,-1,-2,-2,-1,-1,-2,1,0
1622149861221572,0,-1,-1,0,-1,0,-1,-1
1622149861236398,-1,0,-2,-2,-1,0,-2,-1
1622149861236398,0,-1,-3,0,-3,-1,-1,1
1622149861243382,-1,0,-2,0,0,-1,-1,0
1622149861243382,-1,-3,0,-3,-2,-2,-1,-2
1622149861258342,1,0,-2,-2,0,-1,0,1
1622149861258342,0,0,-1,-1,0,1,-1,-2
1622149861259340,-1,-1,-2,0,-2,-2,1,-2
1622149861259340,0,-1,0,1,0,-2,1,-1
1622149861272419,-3,-1,0,0,-2,-3,-2,-1
1622149861272419,0,-1,-1,-2,-2,-2,-1,-2
1622149861281531,-2,2,-1,0,0,0,-2,0
1622149861281531,-1,0,-1,-2,-1,-1,0,0
1622149861295452,-1,-2,-1,0,-1,-1,0,0
1622149861295452,0,-2,-1,-1,2,-1,-2,1
1622149861303891,-1,-2,-2,-1,-3,0,0,0
1622149861303891,-2,-1,-2,0,-4,-1,-2,0
1622149861319048,-2,0,-1,0,-1,-2,-1,-1
1622149861319048,-1,0,-1,-2,0,-1,1,-2
1622149861319860,0,-2,-1,-3,-1,-1,-2,-3
1622149861319860,-1,-1,-1,0,-1,-4,-1,0
1622149861333421,-1,-1,0,-2,-1,1,0,-2
1622149861333421,-1,-2,-2,-1,-2,-1,-1,-1
1622149861340894,0,-2,-2,0,0,-1,0,-1
1622149861340894,0,0,-1,-1,0,-2,-1,-2
1622149861355903,0,-2,-1,0,-1,-1,-1,0
1622149861355903,-1,0,0,1,-2,-2,0,-1
1622149861364097,-2,-1,1,2,0,0,-2,0
1622149861364097,0,-2,-1,-1,2,0,-2,0
1622149861378930,0,-1,-1,-1,0,-1,-2,-1
1622149861378930,-1,-1,-3,-1,-1,-1,-2,-2
1622149861379856,-1,-1,0,-1,-1,-1,-1,-1
1622149861379856,-1,-1,-1,1,0,1,-1,-1
1622149861392879,-1,-1,0,-1,-2,-3,1,1
1622149861392879,0,-1,-1,0,-1,0,0,0
1622149861401566,-2,0,0,0,-1,-1,-2,-1
1622149861401566,-2,-1,-1,-2,0,-1,0,0
1622149861415892,-1,-1,-3,-3,-2,-2,1,-1
1622149861415892,-2,-1,-1,-2,-2,-1,-1,-1
1622149861423423,-2,1,-2,-1,-1,-3,0,-2
1622149861423423,-1,0,2,-1,-2,-1,-1,-2
1622149861438994,0,-1,-1,-1,1,-1,-1,1
1622149861438994,-1,-1,-1,-1,-1,-1,0,-2
1622149861439776,-1,-3,-2,-2,-1,-2,-2,-2
1622149861439776,-1,1,-3,-1,-1,0,0,-2
1622149861452772,-3,2,-2,0,0,0,-3,-2
1622149861452772,-2,-1,0,-2,1,-2,0,0
1622149861460751,2,0,0,-1,0,-1,-1,0
1622149861460751,-1,0,0,0,-2,-2,-1,0
1622149861475711,0,-1,0,0,0,-1,-2,-2
1622149861475711,-3,-2,-2,-2,1,-2,-1,-2
1622149861483755,-1,-2,-1,-2,0,0,0,-2
1622149861483755,0,-1,0,-1,0,0,-2,-2
1622149861498845,-1,-4,-1,-1,-1,1,0,0
1622149861498845,1,0,0,0,-2,-1,-3,0
1622149861498845,0,-1,-2,-2,-1,-2,0,-1
1622149861498845,-1,0,-2,0,0,-1,-1,-1
1622149861513403,-1,0,-1,-2,0,-3,-1,-1
1622149861513403,-2,-1,0,0,0,0,-1,-1
1622149861521526,0,0,-1,-1,-1,-1,-1,1
1622149861521526,0,-1,-3,0,-1,-2,-2,-2
1622149861535828,-1,-2,-1,0,-3,0,-1,-1
1622149861535828,0,-1,-1,-2,0,0,-1,0
1622149861543833,0,-2,-2,-2,-3,-2,-2,-2
1622149861543833,-1,-2,-1,-2,-2,-1,0,-1
1622149861557800,0,-2,-2,0,-2,-2,0,-1
1622149861557800,-2,-1,-2,-1,-1,0,-1,-1
1622149861566750,-1,1,0,-1,1,0,0,-2
1622149861566750,-2,0,-2,-1,-1,0,0,0
1622149861572814,0,-1,-2,0,0,-1,0,0
1622149861572814,1,-1,-1,-1,-2,0,0,-2
1622149861582472,-1,0,-2,-2,0,-2,0,-1
1622149861582472,-2,-1,-1,-2,0,-1,-2,-1
1622149861595896,0,-1,0,0,-1,0,-2,-2
1622149861595896,0,-2,-1,0,0,-2,-1,0
1622149861604114,0,-1,-1,-1,-2,-1,-2,1
1622149861604114,1,0,-1,-1,-1,-2,0,-2
1622149861617992,1,0,0,-2,1,-1,0,-2
1622149861617992,-1,-1,0,-1,-2,-2,-1,-2
1622149861627417,-1,-2,0,0,-1,-1,-1,0
1622149861627417,-2,0,-2,-2,-3,-1,-2,-1
1622149861633441,0,-1,-3,0,-3,-2,0,-1
1622149861633441,-1,0,-1,-1,0,1,1,0
1622149861649205,0,0,-1,-1,-1,0,0,0
1622149861649205,0,-2,0,-1,1,-1,0,-1
1622149861655857,0,-1,-3,-2,-2,0,-1,-1
1622149861655857,0,0,-2,-3,-1,-1,1,1
1622149861664922,-1,-2,-2,-1,-1,-2,-1,-2
1622149861664922,-2,-1,-1,0,0,-3,-2,-1
1622149861678405,-1,0,-1,0,-1,0,-1,-2
1622149861678405,-1,-1,-1,0,0,-3,-1,-1
1622149861686650,-1,0,0,-2,0,-2,-2,-2
1622149861686650,0,-2,-1,-2,-1,0,1,0
1622149861692662,-1,-1,-1,0,0,-1,0,0
1622149861692662,-1,-2,-1,0,-1,-1,-1,-3
1622149861702447,-1,-1,0,-1,-3,1,0,-1
1622149861702447,-1,-2,-3,0,0,0,-1,-1
1622149861715857,-1,-1,-1,-1,0,-2,-2,0
1622149861715857,-1,-1,-1,-1,-1,0,0,-1
1622149861724407,0,-1,0,0,-1,-1,0,-1
1622149861724407,0,-1,-2,-1,-2,-1,-1,-2
1622149861738343,-2,0,1,0,0,-1,0,0
1622149861738343,-1,0,-2,0,0,0,-2,-1
1622149861747325,-1,-1,-1,0,-1,-2,-1,0
1622149861747325,-1,-1,-1,0,-1,-2,-1,0
1622149861761312,-1,-2,-1,0,-1,0,0,-3
1622149861761312,-2,-2,-1,-2,-1,-1,-1,-1
1622149861763284,-1,0,-2,0,0,-1,-1,0
1622149861763284,0,-1,1,-1,-2,-1,-2,-1
1622149861775250,-1,0,-1,-1,-2,-1,-2,-1
1622149861775250,-1,-3,-1,-1,-1,-1,1,0
1622149861784160,-2,-2,-1,-1,0,-3,0,-2
1622149861784160,-2,-2,-2,-2,-1,-1,0,-1
1622149861798462,-2,-1,-1,-2,-1,-2,1,-1
1622149861798462,-1,-1,0,0,-2,-1,-1,-2
1622149861806486,0,-1,0,-1,0,0,-2,-1
1622149861806486,0,-1,0,-2,-1,-1,-1,0
1622149861821916,0,-2,-1,-1,-1,-1,-1,-1
1622149861821916,-2,-2,0,-1,-1,0,-2,1
1622149861828439,-1,1,0,-1,0,0,0,-1
1622149861828439,0,-2,0,-1,0,-1,-1,-2
1622149861835860,0,-3,-1,-1,-2,0,0,-1
1622149861835860,-1,-1,0,-2,0,1,-1,0
1622149861844879,-1,-2,-1,1,1,-1,0,0
1622149861844879,-1,-1,-2,-1,-1,-1,-1,0
1622149861857906,-2,0,-2,0,-1,-1,-1,0
1622149861857906,-1,-2,-1,0,0,-1,0,-1
1622149861866668,-2,-2,1,-1,-1,-1,0,1
1622149861866668,-1,-1,-1,0,-1,1,0,-2
1622149861882255,-2,-2,-2,0,-1,-1,-1,0
1622149861882255,0,-1,-2,-3,-2,-2,0,-3
1622149861884378,-1,-1,-1,-3,-3,0,-2,0
1622149861884378,1,0,-1,-1,0,-3,-2,-1
1622149861895873,2,0,0,-1,-1,-1,0,-1
1622149861895873,1,-1,0,0,-3,-2,0,-1
1622149861904041,-1,-1,0,0,-1,-1,-2,-1
1622149861904041,0,0,1,-1,-5,-1,0,-1
1622149861918441,-2,-1,-2,0,-1,0,0,-1
1622149861918441,-1,1,-1,-1,-1,1,0,1
1622149861926679,2,-1,-2,0,-2,-1,-1,-1
1622149861926679,0,0,-1,-1,1,1,-1,0
1622149861940842,-1,-2,0,-1,-1,-1,-1,-1
1622149861940842,-2,-1,-1,-1,-1,0,-1,0
1622149861949808,-3,-1,-1,-1,-2,-1,-3,-1
1622149861949808,-3,0,0,0,-1,-1,0,-2
1622149861955882,0,-1,-1,0,0,0,-2,-1
1622149861955882,-1,0,-1,0,-1,-2,-3,-1
1622149861964116,-1,0,-1,-1,0,-1,0,-4
1622149861964116,-2,-1,-1,-2,-1,0,-2,0
1622149861978439,-1,-2,-1,-2,0,-1,-1,0
1622149861978439,1,1,-1,-1,-1,-3,-2,-2
1622149861986662,0,-1,-1,-3,0,-1,-1,-1
1622149861986662,0,-2,-2,-2,0,0,0,-1
1622149862001599,-1,0,-2,-1,-1,-2,0,-2
1622149862001599,1,-2,-1,-2,0,-1,-1,-2
1622149862008386,-2,-2,0,-1,0,-1,0,-1
1622149862008386,-2,0,-2,0,-1,-2,0,-1
1622149862015897,0,-1,-1,-2,-2,-1,-1,0
1622149862015897,-1,-3,-2,-1,0,-1,1,0
1622149862024384,-2,0,-1,-1,-1,-1,-1,0
1622149862024384,-1,-2,-1,-1,0,0,-3,0
1622149862038344,-2,0,-2,-1,0,0,1,-1
1622149862038344,0,-2,-1,-1,0,-1,-4,0
1622149862047354,-1,-2,0,-1,0,-1,0,0
1622149862047354,-1,-1,-2,-1,-2,0,0,-1
1622149862069776,0,-3,-1,-1,-2,-1,0,-1
1622149862069776,-1,-1,-2,0,-2,-1,-1,-2
1622149862070777,-1,0,-2,0,-2,-2,-2,-1
1622149862070777,0,-1,-2,1,0,0,0,-1
1622149862075767,-2,0,0,-1,-1,-1,-2,0
1622149862075767,-1,0,0,-1,-1,-1,0,-1
1622149862084177,-2,-1,-1,-2,-1,-1,-3,-1
1622149862084177,-1,1,-1,-1,-2,-1,-1,-1
1622149862098469,0,-1,-1,-2,0,0,0,-1
1622149862098469,0,-1,0,-2,-2,-2,0,-2
1622149862107164,-1,-2,-1,-2,0,-2,1,1
1622149862107164,0,-1,-2,-3,1,-2,-1,0
1622149862120129,-1,-2,-1,-2,0,-1,-1,0
1622149862120129,-2,0,-2,-1,-1,0,0,-1
1622149862129773,-2,1,-1,-2,-3,1,-1,-1
1622149862129773,0,-1,-1,-1,-1,-2,-2,-1
1622149862135418,-1,0,-1,0,-1,-2,-1,-2
1622149862135418,0,-1,1,0,-1,2,0,0
1622149862144369,-1,-3,-1,-1,-2,-1,0,-2
1622149862144369,-1,-1,-1,-1,1,0,-2,-1
1622149862158325,-1,-2,-1,2,-2,-1,0,-1
1622149862158325,-2,-2,-3,-2,-1,-2,-2,-1
1622149862166666,-1,0,-1,-1,0,0,-2,0
1622149862166666,-2,-2,-1,-1,1,-1,-3,0
1622149862180881,0,0,-1,-1,0,-1,-2,-2
1622149862180881,-1,-2,-1,0,-2,-2,-2,-1
1622149862189778,0,-2,-2,-1,-1,0,1,0
1622149862189778,-1,0,-1,-1,0,-1,0,-1
1622149862195789,0,-1,-1,0,-1,-1,-1,-1
1622149862195789,-1,0,-2,0,-1,-2,0,-1
1622149862204146,-1,0,-1,-1,0,0,-1,-1
1622149862204146,-1,-2,0,-1,-1,-2,-1,-1
1622149862226418,-2,-2,0,1,0,0,-2,0
1622149862226418,0,-3,0,-1,-1,0,0,0
1622149862228856,1,-2,-1,-1,-2,-1,-1,-3
1622149862228856,0,-1,-2,-1,-2,-2,1,0
1622149862240818,0,-1,-2,-1,-3,0,-2,-2
1622149862240818,-1,-2,1,-1,0,-1,1,-1
1622149862249761,1,1,-1,-1,-1,-2,-1,0
1622149862249761,-2,-2,0,0,-2,2,0,-1
1622149862255842,0,-1,-1,0,0,-1,0,0
1622149862255842,-1,-1,1,0,-1,-2,-1,1
1622149862264196,-1,-2,-1,-2,-1,-2,-1,-1
1622149862264196,0,-1,-1,0,0,-2,0,0
1622149862277868,0,-1,-2,-2,-2,0,-2,0
1622149862277868,-1,0,-1,0,-1,0,-1,0
1622149862286891,-2,-1,0,0,0,1,-2,-4
1622149862286891,0,0,0,-1,-3,0,-2,-1
1622149862300930,-1,0,1,-3,0,-2,-1,-1
1622149862300930,-2,0,-2,-2,-1,-1,0,-2
1622149862309612,0,-2,-1,-1,-2,0,0,-1
1622149862309612,-1,-2,-1,0,-1,-1,-1,-3
1622149862315911,-2,0,-1,-1,0,0,0,-1
1622149862315911,-2,0,-2,2,-2,0,-1,-2
1622149862324790,0,-2,-1,-1,0,-1,0,0
1622149862324790,-2,0,0,-2,-4,-2,-1,-1
1622149862337894,-1,-3,-3,-1,-1,1,0,0
1622149862337894,-1,-1,0,-2,2,1,-1,0
1622149862346846,-1,0,-1,-1,-2,-2,0,-2
1622149862346846,0,-1,0,-2,1,0,0,-1
1622149862360878,1,0,-1,-1,-3,-2,0,-1
1622149862360878,-1,1,-1,-1,-3,-2,1,-1
1622149862369775,0,0,0,0,-1,-1,-1,0
1622149862369775,-1,0,1,0,-1,-2,-1,0
1622149862384814,-1,-1,-2,-1,0,-2,1,0
1622149862384814,-1,-1,1,0,1,0,0,0
1622149862386781,-2,-1,0,0,0,1,-2,-2
1622149862386781,-1,0,-2,-1,-1,0,0,-1
1622149862397818,-2,0,-2,-2,1,-2,0,0
1622149862397818,0,-2,-1,-2,-2,0,-2,-1
1622149862406850,-2,-2,-2,-2,-1,-1,-1,-1
1622149862406850,-1,-1,-2,-2,0,1,-1,-1
1622149862420903,0,-1,-1,0,-2,0,-1,-1
1622149862420903,-1,-1,-3,-1,-2,-1,-3,-3
1622149862428990,-2,-1,-1,-1,-1,-1,1,-1
1622149862428990,0,-2,-1,-1,-1,-2,0,-2
1622149862435854,0,0,1,-1,-2,0,-2,-1
1622149862435854,-2,-1,0,-2,-1,-1,-1,1
1622149862444853,-1,-2,-2,1,0,-2,-2,-1
1622149862444853,-2,0,1,-1,-3,-2,0,0
1622149862458326,-1,-2,1,-1,-1,-1,0,0
1622149862458326,0,1,-2,-1,0,-4,-2,-2
1622149862466661,0,0,-1,1,-1,-1,-2,-1
1622149862466661,-1,-1,-2,0,1,-1,-2,-2
1622149862480887,-2,-1,-1,0,0,-2,-2,-3
1622149862480887,-1,-1,-2,-1,-1,-1,-2,0
1622149862489775,0,0,-1,-2,-2,-1,0,-2
1622149862489775,-2,-2,0,-2,-1,0,-1,-2
1622149862495763,0,-1,0,0,-2,-2,-1,-1
1622149862495763,-2,-3,-1,-1,0,-1,0,-2
1622149862504162,0,-1,1,-1,-1,-2,-1,0
1622149862504162,-1,-1,-1,1,-2,-2,-2,0
1622149862518447,-1,-1,-2,-3,0,-1,0,-1
1622149862518447,0,-1,0,-2,-1,-2,0,-1
1622149862527499,-1,-1,0,-1,0,-1,-1,0
1622149862527499,0,0,-1,-1,-1,-2,-1,-1
1622149862539962,0,-1,-1,-1,0,-2,0,-1
1622149862539962,-2,-2,-1,0,-1,0,-1,0
1622149862549976,-1,-1,-1,1,-1,-1,-1,-1
1622149862549976,0,-1,-1,0,-2,-1,-3,0
1622149862555616,-1,1,-2,0,0,-1,0,-3
1622149862555616,-1,-1,-2,0,0,-1,-1,-2
1622149862564881,-1,0,-1,0,-1,-3,0,0
1622149862564881,-2,-2,0,-1,-1,0,0,0
1622149862578344,-2,-1,-2,1,-2,0,-2,0
1622149862578344,0,-1,-1,-1,-2,0,0,-2
1622149862587852,0,-1,-1,-1,0,0,-1,0
1622149862587852,-3,0,-2,0,-1,0,0,-2
1622149862600805,-1,0,0,-1,-1,-2,0,0
1622149862600805,-3,-1,-1,-3,-2,-1,-1,0
1622149862609786,0,1,-2,-1,-2,-2,-1,0
1622149862609786,0,-1,-1,-1,1,-1,0,0
1622149862615796,-1,-2,0,-1,0,-1,-1,0
1622149862615796,-1,0,-2,0,-1,-1,-1,1
1622149862624387,0,0,1,-1,0,-2,0,-1
1622149862624387,-1,-1,0,0,1,-2,-1,-1
1622149862638409,-1,-2,0,-1,-1,0,-1,-1
1622149862638409,-1,-1,-1,-2,0,-2,1,-3
1622149862646399,-2,-1,-1,-1,-2,-2,-1,-1
1622149862646399,1,0,-2,-2,-2,-2,-2,1
1622149862660364,-2,-2,-1,-1,-1,0,-1,-1
1622149862660364,0,-1,0,0,-1,-2,-1,-1
1622149862669874,-1,-2,-2,-3,-2,1,-1,0
1622149862669874,-2,-2,-1,-2,-1,-1,-2,0
1622149862684763,1,0,-2,-1,-1,-3,-2,-2
1622149862684763,0,-2,1,-2,0,-1,-1,-3
1622149862685766,-2,0,-1,0,-2,0,2,-2
1622149862685766,0,-2,-1,0,-1,-3,-1,0
1622149862697770,-2,-1,-2,-1,-2,0,-1,0
1622149862697770,-1,1,0,0,-1,0,-1,1
1622149862706712,0,-1,-1,-1,-1,-1,-1,-2
1622149862706712,-1,-1,-1,-2,0,0,-2,-1
1622149862720889,-1,-1,0,0,-3,-1,0,-1
1622149862720889,0,-1,-3,-1,0,0,-2,0
1622149862729918,0,-1,0,-3,0,0,-1,-2
1622149862729918,0,0,0,-3,-2,0,-1,-1
1622149862743934,-1,-3,1,-1,1,-2,-1,-2
1622149862743934,-2,0,-1,0,-3,-1,-1,-1
1622149862745929,0,0,0,0,-2,-4,-3,-3
1622149862745929,1,-2,-1,-2,-2,-1,1,-1
1622149862757917,-1,1,-1,-1,-1,0,-2,0
1622149862757917,0,-2,-1,-2,-1,-1,-1,-1
1622149862766780,0,-3,-1,-1,-1,0,0,-2
1622149862766780,-1,-1,-2,-1,-2,-2,-2,-2
1622149862780876,0,0,-1,0,-1,-1,0,2
1622149862780876,-2,-1,-1,0,-1,-2,1,0
1622149862790828,-2,-1,-3,-2,-2,-1,0,0
1622149862790828,-1,-1,-1,0,-2,-2,1,-2
1622149862804790,-2,-2,0,-1,0,-2,-1,-2
1622149862804790,-1,0,-1,-1,-1,0,-1,-2
1622149862805792,-2,-2,-1,-1,2,0,-1,0
1622149862805792,0,-1,-1,-2,-1,-1,-1,-1
1622149862817757,-2,-1,-1,-3,0,-3,-1,-1
1622149862817757,-1,-1,0,-1,0,-1,0,-1
1622149862826602,-1,0,1,1,-1,-3,-2,0
1622149862826602,-2,0,-1,0,-1,0,0,-2
1622149862840847,-1,0,-1,-2,-2,1,-1,-1
1622149862840847,1,-1,0,-2,-2,-1,-1,-1
1622149862849799,-2,-1,-1,-1,-1,-2,0,-2
1622149862849799,0,-2,0,0,0,0,0,-1
1622149862864846,0,-1,0,-1,0,0,-1,-1
1622149862864846,-1,-1,-1,0,-3,-1,-1,-2
1622149862866422,-1,-2,-2,-2,-1,-1,-2,0
1622149862866422,-1,-2,-1,-1,-1,-2,-1,-1
1622149862878485,-1,-1,-1,-1,1,-3,-1,-3
1622149862878485,-1,-1,-1,1,-1,-2,0,1
1622149862886491,-1,-1,0,0,1,2,0,-1
1622149862886491,1,-2,0,-2,0,-1,0,0
1622149862901116,0,0,-1,0,-2,-1,0,-1
1622149862901116,-1,-1,0,-2,0,0,-3,-1
1622149862909639,-1,-2,0,0,-3,-2,-1,-1
1622149862909639,0,0,-2,0,0,-2,-1,-3
1622149862924835,-2,-1,0,-1,-2,-2,-1,0
1622149862924835,-1,-1,-3,-1,-1,-1,0,-1
1622149862926446,-1,-2,-2,-2,0,-2,-2,-1
1622149862926446,-2,1,-1,0,-4,-2,-2,0
1622149862938891,-1,-1,-1,-3,-1,0,0,0
1622149862938891,-2,-2,-2,-3,-2,-3,0,-3
1622149862946759,-1,0,0,0,-1,-1,-1,-2
1622149862946759,2,-3,-3,-1,0,-1,-1,-1
1622149862960781,0,-1,-2,0,0,-1,-2,-1
1622149862960781,-1,-1,-1,0,0,-1,0,-1
1622149862969776,0,-1,-2,-3,-2,0,0,0
1622149862969776,-3,0,-1,-1,0,0,0,1
1622149862984796,-2,-1,-1,0,1,-2,-1,-1
1622149862984796,-1,-1,-1,-1,-1,-1,-2,0
1622149862985781,-1,-2,-1,0,0,-1,0,0
1622149862985781,-1,1,1,-1,1,0,-1,-2
1622149862997775,0,-3,-1,-1,-1,0,-1,-1
1622149862997775,-1,-2,1,0,-2,-1,-1,-1
1622149863006729,0,-1,0,-2,-1,1,-2,-1
1622149863006729,-1,-1,-1,0,-1,-3,-2,-2
1622149863020970,-2,-1,-2,0,-2,-1,0,-1
1622149863020970,-1,-2,0,-3,-1,0,-2,-1
1622149863029773,0,0,-1,-2,0,-3,-1,0
1622149863029773,-2,0,-1,-1,0,0,0,1
1622149863043934,0,0,-1,-1,-2,1,-1,-1
1622149863043934,-1,-1,-2,-3,-2,-1,-1,-1
1622149863045904,0,-2,-2,0,-1,-1,0,-1
1622149863045904,-1,-2,-1,0,-2,0,-2,-2
1622149863058400,1,-1,-1,1,0,-3,1,0
1622149863058400,-1,-2,-1,-1,-1,1,0,0
1622149863066655,-2,0,0,-2,-1,-2,-1,-1
1622149863066655,0,0,-1,-3,0,-3,-1,0
1622149863080917,-1,-1,-2,-3,-2,-2,-1,-3
1622149863080917,0,0,-1,0,0,-1,-1,-1
1622149863089895,0,-1,-1,0,0,-1,-1,0
1622149863089895,-2,0,0,-1,0,-1,-1,0
1622149863104840,-3,-1,-1,-2,0,1,-1,-1
1622149863104840,-2,0,-1,-2,-1,-3,-2,-1
1622149863105784,-1,-1,-1,0,-2,1,-1,-2
1622149863105784,-1,-1,0,0,-1,-1,-2,1
1622149863118509,1,-2,0,0,-2,-1,0,-1
1622149863118509,-1,1,-2,0,0,0,2,-1
1622149863126674,-1,0,-2,-1,-1,0,0,0
1622149863126674,1,-1,-1,-1,-1,-1,-1,-1
1622149863140505,-1,-1,-1,-1,-2,-2,-2,0
1622149863140505,0,-2,1,-1,-1,-3,-1,-1
1622149863149459,-1,-1,-2,-3,0,-1,-3,-2
1622149863149459,-4,0,0,1,-2,1,1,-1
1622149863164844,-1,0,-2,-1,-1,0,-2,1
1622149863164844,0,-2,-2,0,-2,-1,-2,0
1622149863166456,-1,-1,-1,-1,-2,-2,-2,-1
1622149863166456,0,-1,-1,-2,0,0,-3,-1
1622149863178846,0,-2,0,0,1,-1,0,-1
1622149863178846,-1,-1,-1,-2,-2,-1,-1,0
1622149863186698,-3,-2,0,-1,0,0,-1,-1
1622149863186698,-1,-1,-1,-1,0,-2,-1,-1
1622149863200952,-1,-3,-2,0,-1,-2,-1,0
1622149863200952,2,-2,-2,1,-2,-1,-1,-2
1622149863209283,-1,-2,-1,-1,0,0,0,0
1622149863209283,0,0,0,-1,0,-1,0,0
1622149863224324,-2,-1,-2,-1,-1,-1,-1,0
1622149863224324,0,0,0,-1,0,-1,-1,-1
1622149863226344,-2,0,-2,-2,-1,-1,-3,-1
1622149863226344,-1,-3,-1,-2,-1,-2,-1,-1
1622149863238473,0,1,-1,-2,0,0,0,0
1622149863238473,0,-2,-2,-1,0,-1,-2,-2
1622149863247456,-1,-3,-1,0,-2,-2,-1,-1
1622149863247456,-1,-3,0,0,-1,-3,-2,-1
1622149863260960,-1,-2,0,-1,-1,-2,-2,-1
1622149863260960,-2,0,0,-1,0,-1,-3,1
1622149863269871,1,0,-1,-1,-1,0,-1,0
1622149863269871,0,0,-3,-1,0,0,1,-1
1622149863284174,1,1,-1,-3,-3,-2,-2,-2
1622149863284174,-2,-1,-1,0,-1,-3,0,0
1622149863290161,0,-1,-2,-1,0,0,-2,0
1622149863290161,-1,-2,-2,0,-1,-1,0,-1
1622149863298509,-1,-1,-1,1,1,-3,-1,0
1622149863298509,-1,-2,-1,-1,-2,-2,0,-1
1622149863306887,-1,1,-1,-1,-1,-1,-3,0
1622149863306887,0,-2,-1,-2,-3,-2,-1,-1
1622149863320866,-1,-1,-2,-1,0,1,-1,-1
1622149863320866,0,-2,0,-1,1,0,-2,0
1622149863329815,1,-2,-1,-1,0,-3,0,-1
1622149863329815,0,-1,0,-1,1,0,1,1
1622149863342812,-1,-1,0,-2,-2,0,-2,0
1622149863342812,0,-1,-1,-1,-1,1,-2,0
1622149863352759,-3,-1,-3,0,-4,1,1,-3
1622149863352759,-2,0,0,1,0,0,-2,-3
1622149863358431,-1,-1,-3,-1,-1,0,1,-2
1622149863358431,-1,0,-1,0,0,-1,0,-1
1622149863366739,0,-1,0,-2,-1,-2,2,-2
1622149863366739,-2,0,-4,0,-1,-3,-2,1
1622149863380846,0,-1,-2,-1,0,-2,-1,-2
1622149863380846,-1,0,-1,0,0,0,0,0
1622149863389779,-1,-2,-1,-1,0,0,-2,0
1622149863389779,-1,-2,-2,-2,-3,-2,-3,-2
1622149863402791,-1,0,0,-1,0,-3,-1,-1
1622149863402791,-2,-2,0,-2,-2,-2,0,-1
1622149863411753,0,-1,0,0,0,1,-1,0
1622149863411753,-1,-1,-1,-1,0,0,-2,-1
1622149863418434,-1,-1,0,-2,-1,1,-2,-1
1622149863418434,-1,-1,-2,-2,-1,-2,-1,-1
1622149863427413,-3,0,0,0,-1,-2,1,-1
1622149863427413,-3,0,-2,-1,1,1,-1,-1
1622149863440783,-1,0,-2,0,-1,0,-1,0
1622149863440783,1,-1,-1,-1,-1,-1,-2,0
1622149863449755,-1,-2,-2,-2,-1,0,0,1
1622149863449755,0,1,-2,-2,-2,0,-1,-1
1622149863462720,-2,-3,0,0,-1,-1,0,-2
1622149863462720,0,0,-2,-1,-1,-1,-1,-1
1622149863471697,-1,-1,0,-1,-1,-2,-3,1
1622149863471697,0,-1,0,-1,-1,0,-1,0
1622149863478406,-2,-2,0,-1,0,1,-1,-2
1622149863478406,1,-2,0,0,0,1,-1,-2
1622149863493428,0,1,-2,0,-1,-2,0,-2
1622149863493428,-2,-2,0,-2,-1,-2,0,-2
