timestamp,emg1,emg2,emg3,emg4,emg5,emg6,emg7,emg8
1620223838116082,0,-5,3,-10,8,3,8,0
1620223838116082,0,-3,-12,-16,-16,-1,10,-3
1620223838131065,3,1,1,24,12,0,-11,-5
1620223838131065,6,-6,-4,-17,-17,-9,11,5
1620223838138186,-13,2,9,16,0,3,-22,-3
1620223838138186,-1,-2,-9,-41,-5,-12,-2,-1
1620223838153359,-3,-2,-3,10,15,7,-1,-7
1620223838153359,6,-3,-4,12,3,1,2,1
1620223838162147,5,1,2,-4,2,-9,0,1
1620223838162147,-8,-2,-5,16,4,-6,5,1
1620223838168476,8,1,3,-15,-27,7,-1,3
1620223838168476,-13,-5,-4,-29,2,-10,-18,-5
1620223838176410,10,7,3,36,5,3,13,-2
1620223838176410,8,-5,-10,-7,2,2,3,0
1620223838199239,-13,-1,-5,2,-1,0,-9,-4
1620223838199239,6,0,1,-3,-1,0,4,-1
1620223838200300,-7,-3,-14,-13,1,-4,0,-1
1620223838200300,2,-2,5,6,-7,1,2,1
1620223838213346,-10,0,-4,-5,-1,0,-1,1
1620223838213346,-3,2,14,5,-1,-1,-5,0
1620223838221443,4,-5,-5,-4,18,18,24,3
1620223838221443,-22,3,3,3,-3,-9,4,-5
1620223838228897,11,1,4,-26,-5,-1,-6,3
1620223838228897,0,-3,-7,20,0,-2,2,-3
1620223838236417,-6,-2,4,-25,-5,5,-3,-2
1620223838236417,16,-2,4,17,8,-5,1,-1
1620223838250406,-8,8,3,1,-2,-6,-6,2
1620223838250406,0,-3,-3,0,2,4,0,-2
1620223838258384,-3,-4,-3,-3,12,-7,-8,-3
1620223838258384,2,0,9,-13,-22,9,3,0
1620223838273321,-1,1,-1,9,12,-10,-6,-4
1620223838273321,-11,-5,-15,8,-2,-4,-7,-6
1620223838289497,19,-5,8,10,-9,8,6,3
1620223838289497,-14,1,-11,6,12,-3,-7,-6
1620223838291464,15,-5,11,3,1,3,16,2
1620223838291464,-11,8,6,-19,-8,-5,1,0
1620223838295476,-7,-6,-7,7,-3,2,-30,-7
1620223838295476,23,-1,-10,-2,15,0,4,6
1620223838311361,-18,2,13,13,-25,-6,1,-2
1620223838311361,4,-14,-20,-18,2,3,5,-2
1620223838318860,-8,16,4,-4,-8,-6,-8,-2
1620223838318860,6,-7,2,-9,-7,-2,5,0
1620223838333359,0,-4,-9,-2,3,-2,-19,0
1620223838333359,17,-2,-3,1,0,3,12,4
1620223838341489,-14,-2,2,-3,-1,-6,-4,-7
1620223838341489,-2,-2,-7,3,2,2,-5,-3
1620223838356229,16,-2,-3,1,9,9,-3,0
1620223838356229,-23,2,9,-5,-12,-9,-14,-6
1620223838357752,8,-3,-1,-3,11,-1,7,3
1620223838357752,-6,-4,-9,-2,-15,7,-7,-2
1620223838371263,-14,-1,-5,7,9,-10,-3,-3
1620223838371263,3,2,-2,-5,3,1,-3,0
1620223838378871,-5,-2,-2,-4,-11,-4,26,3
1620223838378871,-8,-5,9,-6,4,12,-4,0
1620223838393436,5,7,3,12,5,-3,3,-3
1620223838393436,3,-3,1,24,6,5,-2,1
1620223838401391,-11,-3,-8,-15,-19,-10,-4,-7
1620223838401391,8,0,-2,1,5,2,-1,1
1620223838416980,-2,-1,4,-5,7,-4,11,-1
1620223838416980,2,1,-4,-5,5,-8,-7,-3
1620223838417346,7,2,11,7,11,-7,-3,3
1620223838417346,-13,-2,-2,-3,-29,-6,3,-2
1620223838431330,-2,-1,-10,-13,3,2,-4,0
1620223838431330,-3,-4,1,-7,1,3,-6,1
1620223838438292,3,-1,-2,-12,-10,-3,-15,-1
1620223838438292,8,1,-2,5,-11,-2,5,0
1620223838453310,-7,4,-1,-16,-2,4,2,2
1620223838453310,14,-1,8,6,-12,-12,7,3
1620223838462092,21,-7,5,10,28,8,-25,-5
1620223838462092,-23,7,9,15,12,-2,24,2
1620223838476251,-3,-7,-1,-16,-13,10,-5,-9
1620223838476251,2,-3,-10,-7,2,4,-8,0
1620223838477288,20,5,3,-1,-7,-12,0,4
1620223838477288,-7,-1,6,7,3,-3,-2,1
1620223838491319,12,-7,-6,-3,-1,-5,-20,-2
1620223838491319,-18,10,3,19,5,9,9,-3
1620223838498307,-4,-3,-7,-12,-7,1,4,2
1620223838498307,6,1,-9,2,1,-9,-8,-3
1620223838513257,-2,-3,3,5,15,-6,-3,-1
1620223838513257,3,-5,-4,-3,-11,-1,3,5
1620223838521237,-14,0,1,-8,-17,3,2,1
1620223838521237,33,4,-1,-2,30,3,1,3
1620223838537233,-25,0,3,-10,-13,-2,-4,-6
1620223838537233,1,2,4,35,13,-12,13,2
1620223838538233,-11,-3,-4,-17,8,4,11,-3
1620223838538233,6,-4,0,2,-18,-6,-34,-5
1620223838551333,5,3,3,15,4,-3,8,-5
1620223838551333,10,0,9,-3,-3,-1,-1,-1
1620223838558205,-31,-3,-5,-17,-17,-2,9,-6
1620223838558205,0,0,-4,-2,14,2,1,3
1620223838573336,-2,-4,-9,-13,-7,4,15,3
1620223838573336,3,5,9,22,10,-2,-17,3
1620223838582176,6,-1,-8,-4,-23,-1,4,-3
1620223838582176,-11,-9,-3,-5,0,3,1,-3
1620223838596351,4,13,0,1,1,-17,-1,4
1620223838596351,-1,-6,-8,-12,6,3,7,-3
1620223838597324,-1,-1,2,16,6,9,-18,2
1620223838597324,-22,-2,-12,-23,-13,-15,12,-5
1620223838611309,2,-1,2,-2,0,4,0,1
1620223838611309,19,-2,-6,-20,-16,-10,-11,0
1620223838618129,-27,2,-1,25,10,3,-7,-4
1620223838618129,5,-3,4,-3,-12,5,16,-4
1620223838633207,-2,-3,-2,5,5,-10,1,1
1620223838633207,-4,0,-24,-18,-9,9,-8,-2
1620223838642151,15,6,36,1,-15,-13,9,3
1620223838642151,-2,-4,5,-8,14,11,5,2
1620223838657133,4,-5,-18,11,-9,6,7,2
1620223838657133,-8,5,10,-6,-11,0,-14,-6
1620223838657133,12,-1,-2,14,22,1,1,1
1620223838657133,-3,1,7,-11,-4,-3,-9,0
1620223838671071,38,-2,1,-4,-8,0,7,5
1620223838671071,-27,-2,-1,14,4,10,-6,-8
1620223838678842,-20,0,-7,-5,2,-14,3,-2
1620223838678842,8,3,5,-4,7,-2,-16,0
1620223838693440,-6,-9,-7,0,-4,4,6,-3
1620223838693440,6,-1,3,-24,-8,-1,4,1
1620223838702171,9,1,-4,5,0,0,-3,7
1620223838702171,-7,-5,-20,-4,-6,-1,12,-3
1620223838717070,-6,0,4,11,21,0,-10,1
1620223838717070,-7,1,1,-10,-25,2,6,-4
1620223838717070,-5,-4,-3,5,2,2,1,0
1620223838717070,7,4,6,-3,-13,3,0,0
1620223838731214,-4,-2,-7,-15,5,5,2,-5
1620223838731214,-16,0,0,35,23,2,-13,1
1620223838738128,31,-4,-11,-39,-20,7,-2,-2
1620223838738128,-17,-1,0,18,12,0,-15,-3
1620223838755081,-19,2,4,11,-20,-13,0,-2
1620223838755081,4,-1,5,-12,8,0,38,5
1620223838762061,0,-8,-4,8,-2,3,-10,-3
1620223838762061,7,6,0,-6,-8,-2,-2,3
1620223838776093,-4,-1,5,6,-2,-1,-7,-2
1620223838776093,7,0,-2,-3,2,-9,2,0
1620223838777096,3,-7,-9,3,17,1,5,-8
1620223838777096,-3,1,1,1,-23,-8,2,-2
1620223838791260,-1,10,5,2,2,3,2,2
1620223838791260,4,-6,12,0,1,-2,-10,-2
1620223838798241,-4,2,8,8,-2,-9,4,1
1620223838798241,-5,-3,3,3,18,-1,-10,0
1620223838815195,21,-1,2,6,6,11,-8,-2
1620223838815195,-19,0,-9,-1,-4,-21,-6,-5
1620223838821245,-2,-3,-9,-23,-10,5,6,-1
1620223838821245,3,0,7,13,-14,-8,2,2
1620223838836958,-3,-5,-12,-1,1,-8,-34,-5
1620223838836958,17,6,10,13,11,5,-6,4
1620223838837281,-20,-2,-9,-9,2,-5,-3,-2
1620223838837281,8,-1,1,0,0,6,12,3
1620223838852251,-6,-10,-9,9,12,1,5,-3
1620223838852251,-1,4,9,-9,-19,-9,-5,-5
1620223838858269,1,0,-4,-4,5,-1,-3,-6
1620223838858269,5,-3,-9,6,6,8,-2,2
1620223838873192,-17,2,7,10,-7,-1,8,0
1620223838873192,-1,-8,-16,-7,3,0,-5,-1
1620223838882132,-4,3,9,-6,-6,3,-31,-4
1620223838882132,22,-2,-7,1,0,-6,-1,1
1620223838896118,-19,-5,-14,-32,-11,5,8,-3
1620223838896118,-2,2,-4,18,7,-18,-7,1
1620223838897091,8,4,11,0,-9,0,20,4
1620223838897091,-9,-3,-4,-8,4,4,-3,-5
1620223838911076,11,2,8,12,19,-1,-41,-3
1620223838911076,-1,-3,-6,-16,-22,11,6,-4
1620223838918638,-1,3,-8,-9,-6,-6,-4,2
1620223838918638,15,-8,0,27,16,-1,3,-1
1620223838933285,-20,9,3,-16,1,12,27,0
1620223838933285,-2,-5,5,0,-16,-5,-6,-4
1620223838941156,2,0,0,13,12,-3,3,2
1620223838941156,0,-4,-4,-19,-10,-6,-3,-1
1620223838956211,-17,2,5,-7,-5,-4,7,-3
1620223838956211,-5,-2,-14,-6,10,6,-2,-2
1620223838957208,1,1,14,28,-8,2,22,4
1620223838957208,-5,3,0,-17,2,4,-37,-8
1620223838971220,10,-3,-2,1,-8,-11,26,7
1620223838971220,-5,-3,-10,1,8,1,1,1
1620223838978887,18,0,4,3,10,0,6,4
1620223838978887,-28,-1,7,1,6,-10,-8,-5
1620223838993444,27,0,0,3,-14,8,7,3
1620223838993444,-7,-1,8,-8,-7,5,4,1
1620223839002114,0,3,-16,-17,6,4,5,-1
1620223839002114,-2,1,4,18,-8,-10,10,1
1620223839017062,-3,-6,-8,-5,-6,-9,-7,-2
1620223839017062,4,2,10,13,-6,-4,-4,2
1620223839017062,8,-7,-7,-9,-11,-4,-8,-6
1620223839017062,-33,10,4,-4,15,12,3,-4
1620223839032177,-3,-6,-3,-9,2,4,-7,-2
1620223839032177,9,-1,0,-6,-2,-7,4,2
1620223839038265,-7,0,5,-2,-2,5,11,4
1620223839038265,14,1,0,9,2,-19,-42,-4
1620223839053337,-9,-4,-8,-10,-11,6,-2,-1
1620223839053337,-17,-4,-10,1,16,3,-3,-1
1620223839061416,-1,1,4,-6,11,-6,-5,-2
1620223839061416,2,-6,-4,6,-5,18,21,1
1620223839076375,4,8,3,22,-1,-8,-11,0
1620223839076375,7,-6,-6,-30,1,0,-11,-3
1620223839084307,-7,0,-3,15,-4,-5,-7,1
1620223839084307,1,-5,-17,-10,-3,8,15,2
1620223839090416,1,-3,15,-3,0,-11,-2,-3
1620223839090416,24,1,-2,-7,-11,-4,2,0
1620223839098886,-19,0,-3,3,9,-2,-1,-3
1620223839098886,-2,0,0,-13,-7,0,4,-8
1620223839113216,13,-7,-19,-10,-2,-5,-15,-5
1620223839113216,-24,0,1,9,4,3,22,9
1620223839121194,-4,-3,1,-1,-13,12,-18,-4
1620223839121194,9,0,-9,1,-2,-21,-4,3
1620223839136154,-3,-4,9,17,1,5,0,1
1620223839136154,8,12,5,-1,7,5,4,-2
1620223839144133,0,-4,-2,-4,-2,-6,-5,-2
1620223839144133,-14,-4,3,-11,-17,-1,3,1
1620223839151114,11,5,0,0,6,13,29,5
1620223839151114,0,-2,3,4,-2,-2,-6,-3
1620223839158096,-5,-1,3,-13,3,-2,-4,-2
1620223839158096,4,0,-4,6,3,3,-5,0
1620223839173268,7,-9,-7,-3,-16,-17,7,-1
1620223839173268,-3,3,11,-7,-1,3,-4,-6
1620223839180592,-1,6,9,9,-6,-6,-2,2
1620223839180592,-13,-9,-10,-12,-2,4,8,1
1620223839195554,1,-1,-8,-3,5,4,-7,-5
1620223839195554,-10,-2,-6,5,0,-9,-25,-6
1620223839204530,16,-6,-9,3,-10,-5,-11,1
1620223839204530,8,11,8,5,21,8,15,6
1620223839210514,-15,3,15,-1,-4,-7,-13,0
1620223839210514,16,1,5,-3,-21,5,2,2
1620223839218492,-7,-6,-10,6,10,-3,-1,-3
1620223839218492,0,-3,-9,-3,-1,2,0,1
1620223839233476,-7,-2,-4,-18,4,4,5,0
1620223839233476,8,-2,3,22,9,2,1,0
1620223839240464,-16,0,-3,-6,7,6,12,0
1620223839240464,1,-1,2,3,-19,-5,15,-1
1620223839256391,-12,2,12,-6,-2,-4,-21,-1
1620223839256391,-6,-8,-8,-7,16,4,-4,3
1620223839264396,2,-1,2,3,-20,-4,3,0
1620223839264396,-1,-6,5,14,22,4,-3,-3
1620223839279411,-8,5,-8,-12,-16,-7,15,0
1620223839279411,5,-2,3,-1,17,12,10,-1
1620223839280391,6,-4,-8,-7,-19,-10,-10,-4
1620223839280391,-6,3,15,-22,-7,2,28,-1
1620223839293396,13,-2,2,51,18,6,-10,0
1620223839293396,-9,-1,-9,-10,-1,-2,1,-2
1620223839301350,10,-7,-7,-8,1,-1,4,2
1620223839301350,-13,0,-1,-12,-6,1,-4,-3
1620223839316310,-2,7,18,-3,-10,4,-2,0
1620223839316310,-2,-2,-1,-13,-12,-6,-1,-3
1620223839324288,-3,0,-1,20,22,2,12,1
1620223839324288,41,-1,-3,13,-5,-6,-11,0
1620223839339248,-22,1,-7,-23,3,5,15,1
1620223839339248,-8,-12,-5,12,1,-5,-43,-13
1620223839341242,2,13,16,-15,-12,-11,-7,-3
1620223839341242,-2,2,3,13,1,0,-3,4
1620223839353234,-1,-6,-5,-8,5,2,-3,-2
1620223839353234,4,0,-9,3,-14,3,12,1
1620223839369168,-9,-8,-12,-9,2,1,-5,1
1620223839369168,8,-2,-4,-13,-10,-2,2,2
1620223839376149,-2,4,-6,7,8,2,-27,-7
1620223839376149,-7,1,6,-7,-15,-9,-1,-2
1620223839384128,0,2,-3,12,22,8,0,-1
1620223839384128,-4,0,9,5,-16,-2,2,3
1620223839399088,10,-4,-6,-16,-9,-6,-7,1
1620223839399088,-2,-3,-9,0,12,-1,10,2
1620223839400085,-1,-6,-14,-4,-17,-4,-4,-4
1620223839400085,13,8,24,0,16,3,16,5
1620223839413050,-31,-1,-2,-7,-6,-1,-22,-6
1620223839413050,-1,0,-4,15,6,-1,-5,2
1620223839421081,0,-1,5,5,1,-12,-4,-1
1620223839421081,4,-7,-15,-12,-3,1,-3,-3
1620223839436341,5,0,-1,8,5,2,3,2
1620223839436341,3,3,8,-11,-5,-8,4,5
1620223839444077,-9,-5,-4,2,0,8,1,-7
1620223839444077,0,-2,-3,-12,-7,2,-16,-2
1620223839467018,10,-1,-5,12,2,-8,-1,-1
1620223839467018,-5,-1,3,1,15,3,9,2
1620223839468020,9,0,-5,-9,-24,-1,-18,-4
1620223839468020,-24,2,-5,8,13,2,-11,-7
1620223839473000,7,-4,-1,-11,-14,-7,22,-2
1620223839473000,-6,-10,-10,-11,2,2,-1,-1
1620223839481114,2,11,3,16,13,1,14,6
1620223839481114,-2,-2,-1,1,-1,3,-6,-2
1620223839496004,43,-6,-1,-6,-11,-10,1,3
1620223839496004,-40,9,3,7,10,2,0,-4
1620223839504236,-1,-11,-13,-28,2,3,11,-3
1620223839504236,-3,-3,-1,0,-15,-7,-11,-2
1620223839519187,8,1,15,13,17,-1,17,6
1620223839519187,10,-3,-3,1,-1,3,-11,-4
1620223839520150,-1,-3,-6,-3,-18,-2,11,-1
1620223839520150,-24,5,18,-1,17,-7,-8,2
1620223839533114,-2,1,6,12,-2,7,14,2
1620223839533114,13,-2,-2,-8,-3,-1,12,3
1620223839541178,-12,2,2,-5,3,-1,-36,-4
1620223839541178,11,-9,-3,7,-19,-10,4,1
1620223839556197,-9,7,-7,-5,0,2,1,-6
1620223839556197,0,-4,-4,14,-1,-5,7,2
1620223839564175,4,-1,6,-3,1,3,8,2
1620223839564175,6,-5,-11,-4,3,-1,-6,-3
1620223839579631,-21,-5,-4,-4,2,-10,-6,-1
1620223839579631,6,8,-3,-2,-9,0,-4,-1
1620223839579631,4,0,7,-7,6,-11,-2,1
1620223839579631,-2,-2,-10,-1,-3,0,3,-4
1620223839593462,-9,-2,2,3,-5,-2,5,3
1620223839593462,8,1,12,9,11,0,-2,1
1620223839601206,-7,-2,-3,-15,-17,3,3,3
1620223839601206,20,1,-7,-8,7,-4,-7,-1
1620223839617172,-19,-1,0,20,-1,-2,-2,-3
1620223839617172,3,-7,-11,-3,-6,5,-3,1
1620223839624168,1,7,6,16,2,1,1,2
1620223839624168,-2,-3,-3,-14,-6,3,10,-2
1620223839639161,2,2,-4,3,12,1,-32,-3
1620223839639161,-1,5,10,-10,-13,-5,-1,0
1620223839647139,0,-6,-5,9,7,0,5,1
1620223839647139,-11,-2,2,1,9,-4,2,1
1620223839653158,0,2,-4,8,-12,8,-6,0
1620223839653158,-2,-3,0,-1,7,1,11,-3
1620223839661126,2,2,6,-3,-3,2,-14,2
1620223839661126,-6,0,-4,1,-3,1,-2,-1
1620223839676080,8,-5,2,-11,6,-4,4,-1
1620223839676080,-16,0,-16,-22,-13,0,-27,-8
1620223839684354,-3,-4,-4,7,5,-10,10,-3
1620223839684354,12,9,1,6,9,5,-5,0
1620223839699315,-13,-5,5,2,-3,1,-1,-1
1620223839699315,9,0,6,-9,-9,3,12,5
1620223839700312,-7,-9,-14,-10,8,-1,-6,-6
1620223839700312,-18,-2,13,4,-11,-4,28,-1
1620223839713322,11,1,0,13,8,5,6,3
1620223839713322,4,0,1,-8,-5,-7,-6,-2
1620223839721311,-4,0,-1,4,15,10,8,4
1620223839721311,4,-5,-11,0,-15,-5,4,-1
1620223839736332,-3,-5,1,-23,-2,1,-7,-2
1620223839736332,-3,-1,0,13,10,-5,14,1
1620223839744350,4,3,-3,-1,-11,-8,-4,-1
1620223839744350,-3,0,-10,-3,-5,1,2,-1
1620223839759294,1,3,14,-6,-17,0,8,-2
1620223839759294,2,-6,-5,-10,10,9,-9,1
1620223839760270,2,7,-3,-21,-27,-13,-2,-2
1620223839760270,-10,-2,-2,24,2,7,-7,-4
1620223839773336,8,-4,-9,1,17,3,9,-4
1620223839773336,14,-2,-2,-6,-8,-6,15,3
1620223839781445,-11,1,8,3,-4,8,8,-2
1620223839781445,-3,-2,-7,-22,4,-3,-3,-1
1620223839797210,-3,2,9,8,1,-8,-24,-4
1620223839797210,8,-3,-12,19,7,1,8,2
1620223839804169,3,0,8,1,6,3,11,3
1620223839804169,-2,1,2,-14,-15,-5,-9,-2
1620223839819648,3,-6,-1,-9,11,0,4,1
1620223839819648,-1,16,5,19,-6,4,-5,-2
1620223839819648,-1,-10,-9,-10,-2,-8,-10,-4
1620223839819648,18,-3,3,11,13,5,-10,-2
1620223839833201,-29,0,-14,-27,-5,-6,-4,-4
1620223839833201,-9,-6,1,0,1,0,2,0
1620223839841180,-2,-1,4,36,16,7,2,0
1620223839841180,4,5,9,-8,-17,3,-4,0
1620223839865137,10,1,-8,-1,6,-9,24,4
1620223839865137,22,-9,4,-9,-16,-6,-21,-7
1620223839866113,-15,9,-3,-2,-3,0,7,-3
1620223839866113,-3,-8,-6,2,5,-3,-4,0
1620223839879657,1,7,8,9,1,-2,-2,1
1620223839879657,-8,-5,-2,-22,-13,-1,2,-3
1620223839879657,39,-7,-11,7,-4,7,3,0
1620223839879657,-34,1,16,-17,14,-7,-1,-3
1620223839893487,4,2,-11,16,-11,-1,-3,2
1620223839893487,-8,-2,-2,15,24,2,14,4
1620223839901324,1,-2,-1,0,-10,-7,-14,-2
1620223839901324,3,-3,-12,-2,-14,4,2,-2
1620223839916458,7,0,0,-7,-8,-11,-4,-3
1620223839916458,-10,1,0,-11,-3,6,2,-3
1620223839924222,-12,-2,-3,-4,-3,1,-2,-1
1620223839924222,3,0,-6,3,0,-5,-25,-4
1620223839939229,0,-3,-6,-3,5,7,7,1
1620223839939229,10,-1,3,15,-7,-6,-13,1
1620223839941223,-29,3,0,-32,-8,-5,7,-6
1620223839941223,13,-4,1,11,-4,-4,2,0
1620223839955275,-14,-1,1,-12,12,1,-10,-2
1620223839955275,-5,-3,2,18,-5,0,-13,-7
1620223839961236,5,7,2,0,10,4,5,1
1620223839961236,4,-4,1,-2,-5,-5,-12,1
1620223839976333,6,-3,4,-2,-8,1,6,-1
1620223839976333,-4,1,-21,-13,8,-2,0,-1
1620223839984326,11,0,5,-15,1,0,2,4
1620223839984326,-9,2,2,26,2,5,9,6
1620223839998922,15,-8,4,-19,-2,-6,-5,-3
1620223839998922,-5,3,3,8,-15,-3,-5,1
1620223840006270,-12,-4,-11,-2,1,-1,14,1
1620223840006270,-8,1,6,-8,3,7,-6,-3
1620223840013460,-3,-3,-12,-10,-12,1,13,3
1620223840013460,1,0,12,25,11,-1,-5,0
1620223840021257,11,-2,-9,9,6,-2,4,-2
1620223840021257,3,-4,0,3,-4,-15,9,0
1620223840036357,0,1,-7,-2,3,3,-11,-2
1620223840036357,-3,0,-7,-31,1,-3,3,0
1620223840044508,-3,-5,6,29,0,9,-8,-2
1620223840044508,5,1,-9,-14,-5,4,-1,0
1620223840058100,7,4,-2,5,4,-17,-1,-3
1620223840058100,-5,-5,-2,-22,-8,4,-3,-1
1620223840067163,-10,0,14,19,9,2,-11,-3
1620223840067163,10,1,-6,-7,6,4,20,3
1620223840073267,-17,-3,-2,-5,-18,-1,-4,-4
1620223840073267,-1,0,4,-3,-8,-9,3,4
1620223840081197,4,-6,-13,-3,9,-5,-27,-6
1620223840081197,-1,4,31,12,9,8,2,-3
1620223840112793,1,-8,-10,2,-7,1,2,-1
1620223840112793,-8,6,1,10,-14,-4,-1,1
1620223840112793,-7,-1,3,-35,-25,-6,10,1
1620223840112793,4,-4,-21,8,19,-2,-22,-3
1620223840118888,-5,1,2,5,3,0,-6,-1
1620223840118888,-6,1,-1,-16,-23,-4,-6,-7
1620223840127162,5,-5,3,-10,5,-5,3,1
1620223840127162,-4,6,0,1,-19,0,-3,-1
1620223840141301,21,-1,0,5,2,3,7,0
1620223840141301,-16,-5,0,8,24,-1,-6,-5
1620223840142269,5,-2,-4,-2,1,6,3,-1
1620223840142269,-16,-1,1,-19,-16,-4,-7,-2
1620223840156262,4,2,-3,18,15,5,-6,1
1620223840156262,8,-3,-7,-12,-19,-1,15,-2
1620223840164319,-23,-1,-1,8,11,-6,-19,-13
1620223840164319,-6,-2,8,-2,1,-6,24,7
1620223840178940,-5,7,9,-1,-5,12,-1,-2
1620223840178940,2,1,5,13,3,-10,0,0
1620223840186852,9,0,0,4,5,5,-1,3
1620223840186852,2,-4,-20,2,0,-10,-10,-5
1620223840202186,-12,-4,-3,0,5,5,23,-1
1620223840202186,19,-3,4,-21,5,2,-25,-1
1620223840202186,-4,1,8,9,-8,-3,4,1
1620223840202186,0,0,-3,8,-2,5,-1,-6
1620223840216483,-4,1,7,-4,10,-4,1,4
1620223840216483,4,-3,-6,5,-1,6,0,-4
1620223840232186,6,-1,-1,4,-2,-3,23,6
1620223840232186,-8,-8,-2,2,0,0,-16,-4
1620223840238313,3,9,6,7,1,1,-31,-7
1620223840238313,19,-6,-5,7,6,4,12,2
1620223840247194,-25,5,5,-25,-14,4,2,-3
1620223840247194,-2,-2,1,6,2,-9,0,3
1620223840262186,17,-4,-4,-6,-10,1,-1,-4
1620223840262186,-20,-1,-5,-5,14,-1,-3,-4
1620223840262186,12,3,4,5,-7,0,-10,2
1620223840262186,7,-3,-5,1,3,-5,18,1
1620223840276401,-11,-4,8,-10,3,-4,-11,-3
1620223840276401,-10,0,-9,-7,-10,-5,4,0
1620223840284352,4,-1,-6,12,12,6,3,3
1620223840284352,-2,4,4,-16,-22,0,-5,-3
1620223840298946,-8,-12,-8,-7,-6,-2,-3,-2
1620223840298946,4,18,0,14,7,-6,2,2
1620223840306269,5,-8,11,3,-3,-8,-1,2
1620223840306269,3,-1,-11,-11,5,13,1,1
1620223840321253,-8,-5,-11,-4,-2,3,42,8
1620223840321253,3,0,21,9,3,2,-59,-2
1620223840322253,-7,-5,-5,-7,4,-8,-2,-3
1620223840322253,-5,2,-7,-9,-17,-9,-2,-3
1620223840336457,-1,0,3,11,6,5,10,3
1620223840336457,-14,-2,-3,10,10,5,24,1
1620223840344462,5,1,-4,-4,-10,-4,-5,3
1620223840344462,4,-1,8,0,25,4,1,1
1620223840358961,0,0,-7,8,-10,-3,-12,-2
1620223840358961,5,-2,5,-11,0,-12,4,-2
1620223840367170,3,4,-4,5,-3,2,-8,-1
1620223840367170,-5,0,2,1,-3,-3,5,-1
1620223840382177,1,-3,-8,-10,-4,0,-18,-5
1620223840382177,1,-2,1,4,6,6,11,4
1620223840382177,12,-3,2,-7,-10,-8,7,-2
1620223840382177,10,-6,-4,-18,5,5,9,4
1620223840396465,-7,3,0,24,-2,-7,-47,-11
1620223840396465,-10,-1,2,-9,-12,2,-4,-2
1620223840411243,-6,-4,-7,-5,-6,-2,-10,-5
1620223840411243,18,3,0,14,1,1,11,3
1620223840418225,2,-1,2,-30,-6,-3,-1,5
1620223840418225,-2,-2,-8,13,2,-6,10,-5
1620223840426228,1,-6,1,24,9,-3,-5,-2
1620223840426228,-9,5,1,-14,9,6,-8,-1
1620223840441307,-3,-5,-12,-24,-20,4,29,0
1620223840441307,-4,-5,-3,24,5,-10,-11,-3
1620223840442304,0,2,9,-3,8,-1,6,-1
1620223840442304,-6,-2,-1,18,16,-3,-19,-9
1620223840456265,6,-1,-6,-8,-18,-4,20,6
1620223840456265,7,-5,-8,-29,-23,1,-5,-3
1620223840464315,-14,1,3,11,4,3,11,-4
1620223840464315,10,-2,6,3,-7,-2,-7,0
1620223840478295,-7,5,5,10,17,-10,-18,-3
1620223840478295,0,1,2,2,8,8,8,1
1620223840487124,-4,0,-5,-12,-20,-7,-5,2
1620223840487124,-1,-8,-4,-23,-4,-6,-2,-4
1620223840510257,2,6,0,5,1,5,-1,-4
1620223840510257,-1,-3,-2,9,-6,-4,15,2
1620223840510257,3,-1,-13,-9,8,8,-11,-4
1620223840510257,-9,0,6,25,-1,-13,-1,-3
1620223840516452,3,-5,-3,-13,3,3,0,6
1620223840516452,2,-2,3,-17,-10,6,19,2
1620223840524314,-2,4,1,10,14,1,-8,1
1620223840524314,-7,-4,-5,8,-11,-4,-14,-4
1620223840538335,11,-3,-3,-1,-1,-5,-3,3
1620223840538335,-9,0,-3,-1,19,3,10,-1
1620223840546313,4,1,6,-15,-27,-2,14,0
1620223840546313,-10,-1,-11,-10,3,2,7,1
1620223840561270,2,-3,-1,12,11,-1,-22,-10
1620223840561270,4,1,-7,-15,-5,1,1,4
1620223840562268,1,0,-1,-7,0,6,-10,-1
1620223840562268,-1,-4,-11,-4,-12,-6,19,-1
1620223840576447,5,5,17,9,8,4,-2,-2
1620223840576447,-28,-4,-3,-10,-18,-10,-8,-4
1620223840583432,4,1,8,17,5,4,-2,2
1620223840583432,3,0,-2,-9,1,-3,-4,1
1620223840598363,-1,-4,-3,-7,-22,4,17,4
1620223840598363,3,2,7,-9,22,-8,-42,1
1620223840606443,-2,-4,-7,0,1,-3,3,-3
1620223840606443,-2,1,6,7,0,2,-5,-3
1620223840621967,-10,-6,-5,17,0,6,0,-3
1620223840621967,12,6,1,-10,-6,2,2,2
1620223840621967,-9,-2,2,-5,-13,-11,-11,-2
1620223840621967,14,3,13,-10,15,7,19,5
1620223840635874,-29,-3,-2,5,1,0,-10,-6
1620223840635874,9,0,-2,5,2,-3,6,-2
1620223840643826,-4,-1,-4,-9,-1,0,7,2
1620223840643826,2,-3,-5,5,-11,8,7,-4
1620223840658911,5,-5,-7,-22,19,-12,-9,2
1620223840658911,-1,-4,3,3,-9,0,10,-2
1620223840667187,6,0,-12,9,3,2,1,5
1620223840667187,-9,5,13,11,0,6,-9,-2
1620223840682051,-2,-7,-6,-7,2,-18,-33,-7
1620223840682051,-1,5,1,14,0,-6,-15,-6
1620223840682183,1,1,2,-29,-17,1,6,2
1620223840682183,22,-6,-7,4,10,5,-8,-3
1620223840695913,-31,4,-3,3,-3,4,16,0
1620223840695913,5,2,20,13,-19,3,11,3
1620223840703859,-4,2,5,4,19,-5,-9,-6
1620223840703859,0,-5,-6,4,-14,-6,0,2
1620223840718849,17,3,11,14,0,6,15,4
1620223840718849,-4,1,-11,-18,5,-2,-32,-7
1620223840726818,4,-5,10,14,5,3,0,1
1620223840726818,-9,-1,-6,-30,-11,-6,-4,0
1620223840741890,2,5,-1,-8,-3,1,18,2
1620223840741890,1,-2,-6,7,1,4,28,-2
1620223840742887,8,-1,-3,1,2,2,-11,1
1620223840742887,-15,-1,-5,-8,1,-13,-1,-4
1620223840756260,-26,0,1,1,-4,4,-7,-5
1620223840756260,2,-2,-1,2,-6,1,23,8
1620223840763353,3,0,-5,4,0,6,-2,0
1620223840763353,-10,-9,-10,-10,-2,-11,-1,-5
1620223840778167,25,13,14,8,0,4,7,6
1620223840778167,-4,-6,-5,6,0,-3,-9,-3
1620223840794201,-9,-1,-2,-12,12,5,1,-2
1620223840794201,-1,-3,-14,-2,-15,3,-31,-2
1620223840801282,6,0,-1,11,5,-3,0,-2
1620223840801282,13,-5,-8,-12,-1,-11,-10,1
1620223840802281,-8,5,-6,3,-2,3,3,-4
1620223840802281,3,3,6,7,2,0,5,1
1620223840816457,18,-3,-7,-17,-2,2,19,3
1620223840816457,-26,-5,1,5,-10,1,-7,-4
1620223840823425,6,-4,-12,-1,3,-10,4,1
1620223840823425,-3,4,14,14,9,1,-10,-3
1620223840838444,10,-1,0,-1,-5,-4,24,3
1620223840838444,-16,0,-4,-23,-12,5,-7,0
1620223840846461,-3,0,5,-6,-5,-11,-7,-2
1620223840846461,-9,9,-4,7,4,11,24,1
1620223840861401,5,-12,0,-18,-19,-3,-24,-4
1620223840861401,3,-2,2,16,13,-4,-5,-4
1620223840862402,-4,1,-4,-2,1,-1,-12,-2
1620223840862402,1,1,1,11,4,3,12,8
1620223840876393,-1,2,26,-13,2,1,13,3
1620223840876393,17,0,-2,4,2,0,-13,-2
1620223840883264,-17,-5,2,40,-2,-3,16,0
1620223840883264,2,-3,-2,-11,4,-1,-28,-4
1620223840898116,-6,-4,-20,2,6,-1,-6,0
1620223840898116,5,-2,8,-14,1,4,22,4
1620223840906263,5,0,8,-17,-11,-1,2,-1
1620223840906263,14,-3,-4,10,-18,-2,5,1
1620223840922176,3,0,-5,6,10,6,-5,-5
1620223840922176,-26,0,-6,1,7,-21,-14,-5
1620223840922176,0,-5,-4,-7,-1,12,1,-1
1620223840922176,8,7,7,-5,-5,-5,14,2
1620223840936434,-5,-4,-8,35,13,1,-22,0
1620223840936434,18,1,1,9,0,2,12,4
1620223840943170,-11,-4,-2,-23,-4,-5,2,1
1620223840943170,-9,-4,-3,-15,-6,3,0,-3
1620223840958152,-1,3,-2,1,3,-4,14,6
1620223840958152,4,2,2,20,6,6,-14,-3
1620223840967197,3,-3,-3,-22,20,0,-4,-1
1620223840967197,0,-2,-8,-19,-45,-4,-22,-4
1620223840981418,-12,-3,8,16,-6,-19,-5,-5
1620223840981418,-7,-3,-9,-16,2,7,14,3
1620223840989269,36,6,1,12,-5,1,2,1
1620223840989269,-28,-1,3,9,30,-4,-4,-6
1620223840996252,6,-6,-17,-28,-23,-10,-20,-3
1620223840996252,3,13,15,6,1,1,6,3
1620223841003260,-10,-4,2,13,2,-3,0,-6
1620223841003260,3,-2,-2,0,8,8,15,3
1620223841018267,-3,-1,0,-14,-15,3,-9,0
1620223841018267,-3,-6,-9,2,4,-8,-8,1
1620223841027165,8,1,-3,3,-6,3,3,2
1620223841027165,-4,1,1,4,16,2,22,3
1620223841041264,-10,-2,1,-13,-7,-3,-37,-9
1620223841041264,-5,-4,-7,5,-14,5,-3,-2
1620223841049245,-3,1,8,18,-2,2,-2,0
1620223841049245,-2,-5,-2,-10,2,-7,-4,2
1620223841056256,27,0,-4,-7,-3,-7,6,-3
1620223841056256,-16,0,-3,4,2,0,1,-3
1620223841063257,-1,0,-6,-2,2,0,-16,-4
1620223841063257,-8,1,9,8,-5,3,-3,-4
1620223841078915,8,-1,-3,-16,-4,-7,9,2
1620223841078915,7,-7,-3,-3,-2,14,-3,-2
1620223841087139,-8,-2,-17,-4,-2,-15,12,2
1620223841087139,10,11,39,9,6,-3,-1,5
1620223841101249,-14,-3,-8,19,7,1,0,-2
1620223841101249,6,-1,1,-22,-13,2,0,-3
1620223841109228,4,-4,-10,-19,-2,-1,-6,-3
1620223841109228,-12,-4,-4,10,4,-7,-3,-4
1620223841116483,-6,-1,1,-13,-1,1,-29,-7
1620223841116483,-1,0,8,27,-2,-7,-2,-3
1620223841132157,4,-1,-5,4,-3,2,-8,-1
1620223841132157,13,-1,-13,-21,-17,-5,4,1
1620223841138401,-5,0,9,0,-1,0,7,2
1620223841138401,-17,6,-1,5,6,-6,13,-3
1620223841147241,-1,-3,3,-7,-7,6,-6,0
1620223841147241,-4,-2,-5,24,11,-3,3,0
1620223841161487,19,2,5,-16,-7,6,4,5
1620223841161487,-10,-5,-8,-4,24,-1,0,-3
1620223841169687,0,1,4,6,-24,-13,-2,2
1620223841169687,0,-4,-9,12,-4,0,3,-3
1620223841200989,0,2,-13,-5,5,1,8,6
1620223841200989,8,-3,-1,-13,6,-3,11,3
1620223841200989,-6,-4,7,-8,5,6,-18,0
1620223841200989,0,0,-8,-1,8,0,-3,-2
1620223841203389,-7,3,13,19,-4,-5,-1,1
1620223841203389,3,-1,-1,-10,-14,2,-5,1
1620223841206248,-12,-5,-9,-13,-6,-6,8,-6
1620223841206248,8,-5,-2,0,-3,-2,-6,0
1620223841221469,-20,6,0,2,21,3,-5,-2
1620223841221469,22,-6,-8,23,-13,4,5,0
1620223841229723,-19,-2,2,-16,9,-6,5,-6
1620223841229723,7,2,-3,9,-9,4,-12,0
1620223841244441,2,-1,-6,-4,9,3,17,0
1620223841244441,-6,-2,8,-9,0,-4,-27,-5
1620223841245470,8,2,-5,7,2,5,6,2
1620223841245470,-6,-5,4,-4,-2,-15,-14,-2
1620223841258162,-8,-10,-6,9,-1,0,6,-4
1620223841258162,16,8,-2,-15,2,2,4,-3
1620223841267160,-19,-3,3,1,-1,3,0,-9
1620223841267160,0,0,-2,-8,4,-6,-8,-2
1620223841281472,25,-7,-7,-3,-1,-5,1,-2
1620223841281472,-40,-2,-8,-4,-16,-2,0,-2
1620223841289222,7,2,-4,-3,1,-4,-10,-4
1620223841289222,-4,-7,-7,13,8,4,20,-1
1620223841312184,3,4,5,-8,-26,1,16,3
1620223841312184,4,-6,-13,-23,4,-2,-7,1
1620223841313157,2,2,5,10,-2,-6,0,1
1620223841313157,-4,3,-2,5,12,1,-5,2
1620223841318224,-4,-8,-3,11,-1,2,-2,-2
1620223841318224,16,5,5,5,-4,4,24,3
1620223841327259,-1,-2,0,-23,-3,-11,-1,-4
1620223841327259,-11,-4,-2,9,-10,-1,-7,-5
1620223841341215,-6,5,0,-10,10,-2,1,3
1620223841341215,26,-4,-7,-7,-7,-3,-1,1
1620223841349613,-10,-1,3,3,6,2,7,0
1620223841349613,6,2,2,5,9,11,3,1
1620223841364356,-8,3,0,4,-8,-12,-17,-8
1620223841364356,-6,-1,2,3,13,5,17,2
1620223841365298,12,3,3,6,6,2,-7,3
1620223841365298,-3,-4,-3,-26,-15,-10,7,-1
1620223841378935,-7,-2,-4,14,10,-1,-7,-2
1620223841378935,2,-4,5,-1,-15,-1,-7,1
1620223841386883,3,3,1,20,8,4,4,1
1620223841386883,9,1,-2,-28,3,6,-10,-3
1620223841401365,-17,-1,3,12,-8,-3,27,-4
1620223841401365,-11,-7,-1,-2,12,-11,-17,-3
1620223841409238,3,-4,-4,2,0,3,7,3
1620223841409238,4,2,11,7,3,4,3,1
1620223841424501,4,1,1,-13,-10,-6,-1,0
1620223841424501,-8,-1,-2,9,2,0,-13,-6
1620223841432133,4,3,3,0,-9,-1,0,1
1620223841432133,-2,-4,2,5,11,5,2,-1
1620223841438497,-1,2,7,7,-8,0,1,-1
1620223841438497,-3,-5,-8,-12,8,-12,-6,0
1620223841447217,4,-2,-3,-2,-4,6,0,0
1620223841447217,36,-5,-5,-20,-30,-9,-21,-6
1620223841461504,-41,-1,4,-1,30,-2,-6,-8
1620223841461504,14,4,0,2,-9,10,16,-2
1620223841469638,-19,-6,-1,3,-3,-5,-4,-1
1620223841469638,2,4,-1,-8,4,3,-5,3
1620223841484342,11,-7,-6,-6,-7,1,-1,-6
1620223841484342,-3,1,4,1,1,1,6,0
1620223841485450,4,2,-11,1,2,-3,-23,-2
1620223841485450,-15,0,5,17,1,-6,2,-1
1620223841498592,16,5,1,-16,2,9,2,6
1620223841498592,-13,1,3,8,3,-1,0,0
1620223841506247,4,-6,-7,-16,-3,-5,2,-4
1620223841506247,-9,0,-8,1,-18,-5,5,1
1620223841521405,-13,-7,-4,-8,13,8,-3,5
1620223841521405,9,1,4,-4,1,-6,5,0
1620223841529687,-10,-4,5,6,-11,-5,-1,-2
1620223841529687,-4,8,-6,-6,8,1,-7,-4
1620223841544423,8,-5,-5,1,-17,-5,-4,-2
1620223841544423,5,3,-4,4,0,-1,-12,0
1620223841545396,0,-5,-5,5,5,4,11,-6
1620223841545396,-8,-4,3,4,5,5,10,4
1620223841558137,4,-2,-6,-3,6,-4,-9,-2
1620223841558137,-6,-5,-10,-5,-1,-3,11,5
1620223841567199,7,1,-1,-2,-17,-1,-26,-1
1620223841567199,-5,-1,-2,-3,3,-7,6,-2
1620223841581492,3,0,6,-2,-4,5,-1,1
1620223841581492,-14,-4,9,-2,3,-2,-4,1
1620223841589213,0,8,-2,11,7,-8,7,3
1620223841589213,-2,-4,1,-6,-10,-3,-6,-2
1620223841604173,0,4,-6,4,-4,-3,-7,2
1620223841604173,18,0,3,1,-7,6,-2,-3
1620223841605170,-16,-5,-2,-14,7,10,4,-4
1620223841605170,-3,2,3,0,9,4,-6,-2
1620223841618163,1,-6,-1,7,-12,-19,7,3
1620223841618163,3,3,-3,15,3,-1,-8,1
1620223841627202,13,9,6,-10,3,5,8,3
1620223841627202,-3,-6,-13,-7,-5,4,3,1
1620223841641148,39,-3,7,8,14,3,-6,1
1620223841641148,-45,-1,-6,-35,-14,-5,-1,-3
1620223841649210,0,0,17,41,2,-15,-10,-1
1620223841649210,-5,0,0,-12,7,1,-28,-8
1620223841664334,-1,4,-5,-4,3,2,-8,-8
1620223841664334,3,-7,-10,-12,-1,-1,11,8
1620223841665334,6,-1,-11,-6,-8,1,6,2
1620223841665334,-3,-3,6,-7,-1,-2,14,2
1620223841678987,-7,0,-4,7,1,5,-9,3
1620223841678987,-6,1,-1,-10,-3,-1,-2,-8
1620223841687065,-9,-5,0,-9,-8,0,13,0
1620223841687065,1,0,-5,22,-9,-15,2,1
1620223841701538,-5,4,-4,6,-1,-10,5,0
1620223841701538,-2,-4,-8,-24,3,1,-14,-3
1620223841709132,4,-2,-4,2,9,8,1,-3
1620223841709132,0,2,3,2,0,0,14,0
1620223841724355,-4,2,4,-1,-8,-2,5,4
1620223841724355,12,-4,3,8,6,0,-25,-5
1620223841725448,-22,-5,-4,2,-1,1,5,-1
1620223841725448,-9,7,-6,-12,-4,3,2,1
1620223841738391,-9,-6,-3,-3,-18,3,-1,0
1620223841738391,2,1,10,12,6,0,6,0
1620223841746369,8,-7,-4,-4,0,0,4,3
1620223841746369,24,3,2,13,1,4,2,2
1620223841760789,-22,1,-7,-12,-3,-3,15,-2
1620223841760789,3,0,5,9,-5,-4,-16,-1
1620223841769725,7,-2,-8,-16,-19,3,11,-3
1620223841769725,-2,-6,8,-7,8,1,13,1
1620223841784350,-1,2,6,6,0,-3,-8,-8
1620223841784350,8,5,7,25,7,-6,1,6
1620223841785442,-1,-3,2,-4,6,0,-14,-2
1620223841785442,-1,4,3,-1,-14,-1,10,1
1620223841799003,40,-5,-7,6,19,10,29,3
1620223841799003,-45,-2,-2,-3,-2,0,0,-9
1620223841806251,4,1,2,-11,-6,-9,-7,4
1620223841806251,-6,1,0,-9,-3,-1,-19,-11
1620223841821364,6,-2,2,3,-2,2,-3,6
1620223841821364,1,-3,-6,-3,-13,8,4,-2
1620223841829729,6,6,4,1,3,-5,-3,2
1620223841829729,-7,-6,-9,13,3,3,0,0
1620223841844458,-7,-1,1,3,6,-4,-14,-3
1620223841844458,7,0,6,-25,3,5,15,-1
1620223841845449,-8,-2,-5,-9,-1,-1,-12,-2
1620223841845449,3,-4,7,8,-3,3,8,-1
1620223841867469,4,-2,-6,-13,0,-9,14,0
1620223841867469,-7,9,3,10,1,0,-41,-5
1620223841868469,18,-7,-4,-4,-10,-2,-15,-4
1620223841868469,15,-1,3,-4,0,-4,-4,1
1620223841881538,-32,-7,0,-4,-19,4,-19,-11
1620223841881538,9,0,2,19,13,-8,22,9
1620223841889488,4,3,-10,-5,0,-1,6,-1
1620223841889488,2,-6,-14,-19,1,-1,-9,-1
1620223841903343,-7,2,10,19,6,5,-5,-2
1620223841903343,8,-6,-6,6,-6,-11,3,-2
1620223841911987,-6,1,8,5,16,10,4,-7
1620223841911987,-4,-2,1,-6,-14,-6,3,1
1620223841919037,-4,2,-8,-14,6,10,12,2
1620223841919037,-1,-2,-7,-10,4,10,-12,-4
1620223841926574,22,-3,8,13,-8,-2,15,9
1620223841926574,-33,5,4,17,-7,-13,-6,-3
1620223841941373,2,3,-8,-18,5,2,4,-2
1620223841941373,3,-9,-6,2,-12,-3,12,-2
1620223841948770,-7,5,-3,-2,5,4,9,-2
1620223841948770,6,-2,2,4,13,13,-14,1
1620223841963506,28,-2,2,6,1,-4,4,5
1620223841963506,-23,-1,-12,-6,-12,-9,-19,-5
1620223841971408,-4,-3,9,9,-5,1,2,0
1620223841971408,-6,2,-1,-29,-3,2,7,-3
1620223841979037,14,1,12,13,5,-5,4,4
1620223841979037,19,-2,2,-3,-13,0,-14,-6
1620223841986999,-25,-4,-4,-17,5,0,1,2
1620223841986999,4,0,-10,13,4,-8,-8,-7
1620223842001509,-7,0,-5,-22,1,2,-10,-4
1620223842001509,9,-4,11,5,-3,-5,9,1
1620223842009129,-9,6,0,2,4,1,-10,-4
1620223842009129,9,3,1,3,-2,3,7,4
1620223842023411,-8,-6,-6,7,9,-6,-9,-2
1620223842023411,20,0,-3,-1,-11,4,35,8
1620223842032244,-33,1,1,-2,-2,-3,-16,-7
1620223842032244,7,-1,10,31,1,-5,-4,4
1620223842038334,-17,3,1,-18,-10,-2,-2,-3
1620223842038334,15,1,1,9,24,2,1,3
1620223842047232,-10,-5,-5,-15,-36,-6,-16,-6
1620223842047232,2,-7,-14,-7,11,7,15,0
1620223842061214,-6,1,-4,10,-8,-1,-15,-3
1620223842061214,-1,-2,-1,1,12,-4,5,-1
1620223842069165,5,1,-2,-20,-4,0,2,2
1620223842069165,-9,-3,-3,13,0,0,-11,-10
1620223842083364,-3,-4,-9,3,-19,0,4,0
1620223842083364,-11,0,-5,-12,6,-6,-7,-2
1620223842091242,14,-2,9,47,12,-2,11,4
1620223842091242,2,2,-4,-42,-5,0,0,3
1620223842106242,3,0,1,-4,0,6,5,4
1620223842106242,7,-3,-2,8,-9,7,-3,-1
1620223842107241,4,-3,-6,2,-1,-6,11,-3
1620223842107241,-22,0,17,-1,8,4,2,-3
1620223842121291,20,-5,-12,-4,-5,-5,-14,-1
1620223842121291,-29,4,4,-8,-2,-4,2,-4
1620223842129722,9,-5,-9,-12,-4,-2,-1,2
1620223842129722,4,-2,-5,19,-7,-1,-2,1
1620223842143311,-1,0,1,-15,1,5,-2,0
1620223842143311,0,-8,-9,-21,-11,-8,-8,-2
1620223842152231,6,14,18,20,10,-3,17,3
1620223842152231,-7,-3,-6,2,16,2,-27,-6
1620223842167080,-11,-5,0,-1,-10,-12,5,1
1620223842167080,4,-1,-7,-2,-4,4,-5,1
1620223842167080,5,0,2,-10,9,3,2,2
1620223842167080,0,-4,-6,1,-11,-12,7,5
1620223842181539,11,-1,6,6,4,4,-29,-18
1620223842181539,-21,4,-3,-5,-16,4,-5,-3
1620223842189075,4,-7,-7,14,-4,-5,-13,0
1620223842189075,0,2,-2,9,9,-5,2,3
1620223842203356,-1,1,-8,-25,5,3,1,6
1620223842203356,0,-6,5,13,1,4,3,-4
1620223842211369,-5,13,7,-17,-9,-9,-12,-5
1620223842211369,3,-9,-8,8,-2,-6,5,-1
1620223842227217,-8,3,14,7,2,1,5,2
1620223842227217,18,5,25,14,21,5,-2,3
1620223842227217,-15,-6,-9,-19,-8,2,15,1
1620223842227217,-4,1,-4,10,-15,-2,-1,-6
1620223842241357,9,-1,-1,-4,-5,-6,5,-1
1620223842241357,-18,-3,-11,-2,11,5,-16,-5
1620223842249229,8,-7,0,-22,1,3,3,0
1620223842249229,-4,2,1,-6,-7,0,25,2
1620223842263340,3,2,3,12,0,-6,-4,-2
1620223842263340,3,-2,-4,15,2,2,4,-5
1620223842271236,-1,-1,-3,-9,3,-14,-7,-3
1620223842271236,8,-10,-11,-8,-23,1,3,4
1620223842287221,4,12,20,-15,4,7,7,2
1620223842287221,-31,1,-11,10,-3,-4,15,-1
1620223842287221,-9,-11,-11,9,-2,0,-8,0
1620223842287221,10,2,8,-9,2,-6,-16,0
1620223842301562,-14,-7,-9,-10,-19,1,4,-5
1620223842301562,11,3,6,0,11,5,9,5
1620223842309236,-4,-8,-11,11,6,5,-3,-5
1620223842309236,3,8,-4,-12,11,4,-3,1
1620223842323528,-7,-5,1,8,1,-7,-16,-1
1620223842323528,4,1,0,-5,6,2,2,-1
1620223842332225,2,0,6,3,-7,9,14,1
1620223842332225,4,0,2,0,-6,-5,-8,-1
1620223842347139,-11,-1,-8,1,-3,0,0,1
1620223842347139,19,-6,-10,-10,-9,-3,7,9
1620223842347139,-4,-3,-3,13,10,-2,-27,-3
1620223842347139,-7,9,8,-25,1,8,-8,-5
1620223842362207,-5,-2,-2,13,-5,-3,-1,-1
1620223842362207,6,-1,8,-9,-7,-4,-8,2
1620223842369683,25,1,-4,-7,3,-9,-2,1
1620223842369683,-29,-9,-5,-11,-5,1,8,-2
1620223842383243,-2,6,2,28,6,-7,-4,0
1620223842383243,-3,-4,-11,-15,-2,4,-17,-8
1620223842391338,-6,4,15,8,-6,3,2,1
1620223842391338,12,-2,2,-5,-13,-10,18,3
1620223842406300,8,-1,0,8,5,1,9,4
1620223842406300,-24,1,6,-12,-7,-7,14,-6
1620223842407271,8,-1,-7,1,8,9,-2,0
1620223842407271,1,-4,-9,6,8,3,-8,-2
1620223842421311,-4,-6,-2,-12,-1,-4,-2,-3
1620223842421311,0,-1,0,-6,-31,-10,17,1
1620223842429747,-1,6,-5,-5,-2,-4,-9,-1
1620223842429747,14,-4,2,-3,1,6,-3,0
1620223842452257,-1,-4,-10,4,8,5,11,0
1620223842452257,-14,0,9,-17,8,3,-15,-6
1620223842453257,-4,2,16,15,-17,-7,2,2
1620223842453257,-3,-1,-7,2,-2,-10,1,-1
1620223842467217,6,-5,2,-10,11,-3,-7,-1
1620223842467217,8,0,-8,-1,-3,9,-1,1
1620223842467217,7,-5,-8,0,8,4,7,1
1620223842467217,-11,0,10,7,0,-3,0,-5
1620223842481508,-7,-3,0,-6,-12,-3,-20,-10
1620223842481508,-1,2,-1,14,10,-6,-7,-1
1620223842489240,-3,-6,-7,-14,5,4,6,1
1620223842489240,3,-14,-14,4,-2,2,-12,-4
1620223842503255,-5,11,5,2,6,3,10,6
1620223842503255,-12,3,6,4,-10,-3,-5,0
1620223842512205,-4,-6,-9,-5,2,-8,-11,2
1620223842512205,-1,2,6,10,4,2,21,2
1620223842526265,-6,-7,-7,-13,5,3,-10,-1
1620223842526265,27,-3,2,-9,-7,0,-7,0
1620223842527991,-23,-3,-20,13,2,-5,9,-3
1620223842527991,-8,1,20,9,2,4,-14,-6
1620223842541274,6,3,15,1,-10,-1,8,2
1620223842541274,2,-1,-5,0,2,-8,2,2
1620223842549724,0,-3,-12,-5,-3,5,-7,-4
1620223842549724,2,2,-9,-8,3,-7,1,-1
1620223842564108,-2,-4,-2,0,-7,2,-6,-3
1620223842564108,-5,-4,-4,8,6,1,3,3
1620223842571720,14,3,13,1,5,5,-23,-7
1620223842571720,-14,4,-10,-16,-9,-4,0,-1
1620223842586806,0,-5,1,-5,4,-3,7,1
1620223842586806,-15,-5,-7,-17,6,-1,-6,-3
1620223842587807,-11,11,1,13,8,1,16,1
1620223842587807,8,-5,-1,-2,7,1,4,4
1620223842601272,-10,-1,1,8,-11,-4,1,-10
1620223842601272,9,-1,3,-9,-15,8,-9,-2
1620223842609202,1,-3,3,-7,-1,-10,11,-5
1620223842609202,-4,-5,-4,8,2,-4,-3,3
1620223842623330,2,1,-13,-17,-13,6,4,3
1620223842623330,9,0,6,20,3,7,7,0
1620223842632210,11,-6,0,0,-2,-16,0,1
1620223842632210,-22,-2,-3,14,4,-2,16,-4
1620223842646306,3,2,9,-24,-6,-3,-51,-5
1620223842646306,-2,-1,-6,20,10,-4,-13,-2
1620223842647279,18,2,-1,-20,-18,4,2,6
1620223842647279,10,-3,-4,-2,9,2,-11,-3
1620223842661192,-27,-2,-6,0,7,-4,2,-3
1620223842661192,3,4,7,0,-11,-2,21,7
1620223842669558,-2,-8,3,2,-2,5,-11,-3
1620223842669558,4,5,1,-23,1,2,-7,-3
1620223842683259,2,-2,-4,4,-11,-7,12,0
1620223842683259,5,-1,-4,9,17,7,-6,-3
1620223842691597,-14,-7,-21,-25,-6,-9,1,-4
1620223842691597,20,6,32,0,0,3,-1,11
1620223842707188,-11,6,-2,30,5,11,15,1
1620223842707188,-4,-3,-3,-9,3,-9,-6,-3
1620223842707188,18,4,1,-1,-2,2,18,5
1620223842707188,-11,-1,-9,-5,-8,-12,-23,-4
1620223842721152,9,-3,-1,5,8,-1,13,5
1620223842721152,1,-3,-10,-9,-8,-4,-12,-3
1620223842729739,-7,5,24,14,9,10,9,1
1620223842729739,2,-4,-7,-2,-32,3,-4,-3
1620223842743140,1,0,7,18,9,-5,-5,-9
1620223842743140,4,-7,-10,5,2,6,24,10
1620223842752257,-14,5,-1,-14,7,-4,-15,-2
1620223842752257,5,-2,-6,3,-8,5,10,0
1620223842767278,-18,-5,9,-6,0,6,7,-2
1620223842767278,5,5,3,8,-10,-6,-1,2
1620223842767278,-11,-3,12,-11,-2,0,-3,-5
1620223842767278,-1,-4,-12,9,11,6,5,0
1620223842781537,15,-3,-4,-14,14,4,0,6
1620223842781537,-11,0,18,2,-24,-1,-7,-13
1620223842789274,6,-1,4,0,6,-27,-2,3
1620223842789274,-1,2,-14,2,7,5,4,-3
1620223842803355,1,-3,-4,-5,-13,-4,13,3
1620223842803355,-5,-2,-1,-2,0,-8,-9,-2
1620223842811579,-2,-8,-13,-1,-14,9,-2,-4
1620223842811579,-6,8,10,-10,9,1,4,0
1620223842827274,2,-5,1,8,6,-11,-6,0
1620223842827274,-29,3,-2,-2,2,5,4,0
1620223842827274,-11,-2,-4,11,14,7,5,-2
1620223842827274,-1,-9,-3,-9,-6,2,-7,1
1620223842841258,-6,-1,-7,-7,-6,-3,3,-2
1620223842841258,24,0,-7,-32,-6,-4,19,3
1620223842849787,-2,-2,-7,23,18,-1,-18,-2
1620223842849787,-10,0,2,1,1,0,-1,-4
1620223842863311,9,-7,-5,-2,-7,-4,-9,0
1620223842863311,0,1,18,19,3,-1,10,0
1620223842871404,-6,0,4,-26,-19,1,17,3
1620223842871404,4,-9,0,14,14,-11,-21,-2
1620223842886460,8,13,0,-8,-25,3,6,-2
1620223842886460,-1,-3,-11,-6,5,1,-5,0
1620223842894412,-20,0,2,2,-7,1,8,-4
1620223842894412,36,2,-3,-11,-6,6,3,1
1620223842901392,-32,-6,-16,-20,18,-1,-8,-2
1620223842901392,5,-1,-6,14,3,-6,-11,-1
1620223842909369,16,3,3,5,-3,0,-21,-2
1620223842909369,-7,2,4,5,-3,0,9,2
1620223842923409,2,-2,-3,7,6,9,1,-3
1620223842923409,2,-5,-8,-17,7,-3,-3,-4
1620223842932224,-6,-3,-3,6,-16,-5,-6,-1
1620223842932224,-3,0,-3,-5,-11,0,0,-1
1620223842946562,3,4,18,13,-6,-3,12,6
1620223842946562,22,-11,-14,-11,8,-7,-21,-2
1620223842954238,-24,8,-2,4,2,11,7,-4
1620223842954238,-5,0,6,4,-11,-23,-9,-3
1620223842961297,6,-3,-5,-8,7,9,-18,-2
1620223842961297,0,0,0,21,8,4,32,10
1620223842969448,10,-5,3,-16,-10,-2,-2,1
1620223842969448,-1,0,-8,11,-1,4,-6,-2
1620223842983364,16,-3,4,-8,0,-14,4,0
1620223842983364,-25,2,5,-4,-8,-3,-10,-9
1620223842991398,6,-2,-1,4,13,11,10,-1
1620223842991398,-9,2,5,-3,-7,-6,12,6
1620223843006256,9,-7,-9,2,-4,-2,-3,0
1620223843006256,-2,8,0,-5,4,1,-4,-3
1620223843014821,18,-9,-10,-22,-22,-9,-1,-2
1620223843014821,-20,2,-6,7,13,2,-1,-1
1620223843021332,3,3,19,5,2,-3,-6,-6
1620223843021332,-5,3,-6,8,-14,-6,1,4
1620223843029761,-6,-5,-3,3,12,6,-11,0
1620223843029761,9,1,-1,-3,-1,-14,-6,0
1620223843043346,-8,-8,-17,-12,-2,-1,-4,-1
1620223843043346,-4,3,-3,-25,-14,-2,3,-2
1620223843052218,28,1,2,16,10,5,0,4
1620223843052218,-26,-6,3,-25,5,-2,0,-6
1620223843066601,-4,0,2,29,-2,-2,9,1
1620223843066601,17,5,-3,4,-4,-7,-5,3
1620223843075214,-19,-2,4,-3,-3,0,4,-4
1620223843075214,1,-4,1,-4,14,14,12,2
1620223843090226,1,2,-5,9,3,-4,-15,-2
1620223843090226,2,-7,3,-20,-3,2,12,0
1620223843091220,2,1,8,18,-15,-6,-8,0
1620223843091220,3,7,-2,-8,-7,8,7,4
1620223843103256,-7,-5,-14,-19,2,-5,0,-3
1620223843103256,-1,0,14,31,6,1,-4,-1
1620223843112204,-8,0,-4,15,10,-4,17,2
1620223843112204,40,-4,2,2,10,-8,-45,-4
1620223843126588,-29,2,-2,-12,-23,2,16,-1
1620223843126588,-16,2,-4,0,4,-2,-10,-4
1620223843135236,-3,-2,-8,-29,-9,-11,1,2
1620223843135236,2,-2,0,14,4,8,4,-2
1620223843150422,9,-1,-3,6,4,-2,6,-5
1620223843150422,3,-4,-4,3,0,15,-1,10
1620223843152254,-8,-1,4,0,-19,-14,5,-4
1620223843152254,-4,0,-3,-19,-4,-5,0,4
1620223843163358,-15,-10,-2,6,6,6,9,-3
1620223843163358,3,15,6,-2,1,-3,-13,-3
1620223843172365,5,0,-2,-5,1,-4,-9,-3
1620223843172365,-10,-2,-2,27,3,2,0,-5
1620223843186558,-2,-4,-15,-17,-19,1,35,10
1620223843186558,5,-7,-2,4,8,-4,-6,-1
1620223843201248,-8,4,14,-7,1,2,-3,-2
1620223843201248,3,4,10,-27,-3,-2,9,1
1620223843209229,9,4,6,28,13,12,-2,4
1620223843209229,-5,-8,-20,-24,-16,-10,-43,-13
1620223843216552,-5,0,2,7,9,-2,2,-3
1620223843216552,-5,-4,-13,-16,-7,3,3,-2
1620223843224173,17,0,14,8,10,-6,-7,2
1620223843224173,-11,3,3,3,-3,1,6,-5
1620223843232444,-2,2,-15,-8,2,7,7,0
1620223843232444,1,-4,0,8,-6,-3,9,0
1620223843246152,16,2,3,-19,-4,-2,-14,1
1620223843246152,-39,-3,-12,13,12,9,30,-1
1620223843255215,4,-4,-1,4,-9,-2,-46,-8
1620223843255215,-1,3,7,-3,-10,-4,-5,-3
1620223843269239,-1,1,-7,-4,17,0,14,5
1620223843269239,7,-10,-9,1,-1,7,7,-4
1620223843276625,2,0,-2,-7,0,4,16,5
1620223843276625,0,-1,-1,4,-12,-5,-9,-2
1620223843283350,-12,6,3,-9,-5,-17,-18,-5
1620223843283350,14,0,3,12,14,7,-2,3
1620223843292334,-6,-4,-7,6,5,12,6,0
1620223843292334,6,-3,-5,-11,1,-14,8,1
1620223843306258,11,-1,19,24,4,4,0,-1
1620223843306258,-33,3,4,-17,-2,-9,2,-3
1620223843315582,-3,-3,-8,2,-12,-8,-9,-3
1620223843315582,1,-6,-9,-4,-16,-6,-20,-5
1620223843329109,-5,0,-11,-6,8,17,31,6
1620223843329109,16,-3,4,-18,-6,-12,-8,2
1620223843337282,7,-3,10,32,-7,-8,-16,-2
1620223843337282,-3,-2,-14,-13,0,13,-2,-1
1620223843343296,-14,-2,0,7,-5,-12,10,-9
1620223843343296,12,-1,-5,7,-1,5,-1,-8
1620223843352218,-1,0,7,-3,11,1,8,14
1620223843352218,1,-5,-4,-1,-14,-14,1,-2
1620223843366622,15,5,10,0,4,6,-16,0
1620223843366622,-13,-9,-11,-18,-19,-5,0,-2
1620223843375213,27,-4,0,-2,5,2,-1,-4
1620223843375213,-27,7,-3,5,14,2,10,0
1620223843388199,3,-2,-4,-8,-21,-7,-18,-2
1620223843388199,0,-1,9,-4,9,-1,2,1
1620223843397211,5,-2,-4,7,8,0,-5,-2
1620223843397211,2,-2,10,19,-5,2,-4,1
1620223843405237,-16,0,-11,-24,5,-1,-1,-9
1620223843405237,7,-1,9,-10,-7,-5,4,2
1620223843413243,-12,1,-7,-6,-15,2,2,0
1620223843413243,2,-2,4,8,8,3,-3,-1
1620223843426631,-8,2,-3,0,-8,-4,-12,0
1620223843426631,22,-6,4,2,-2,-7,0,2
1620223843435621,-24,3,-2,-5,7,2,17,-1
1620223843435621,0,-8,0,6,5,3,-7,-1
1620223843449125,0,4,4,8,-12,-8,7,-4
1620223843449125,3,5,-1,-30,8,5,-2,0
1620223843458082,1,-2,-8,3,2,-5,-10,0
1620223843458082,0,-1,3,8,11,10,10,-5
1620223843463337,-12,-4,-3,-12,-4,-6,-7,2
1620223843463337,-13,8,13,24,2,-15,0,2
1620223843472476,-4,-5,-2,-13,-15,2,-6,-5
1620223843472476,-7,-5,-10,-29,0,-18,1,1
1620223843486588,11,7,-8,14,4,3,-6,-4
1620223843486588,21,-2,-2,-2,-3,4,33,2
1620223843495223,-10,2,9,18,9,0,2,1
1620223843495223,7,1,7,11,-4,2,-27,-2
1620223843508212,-3,-3,6,-9,0,0,-6,-2
1620223843508212,-1,-12,-11,35,19,-1,-11,-5
1620223843517306,5,10,5,-12,-26,-2,10,-4
1620223843517306,0,-1,-5,-16,-9,-3,9,3
1620223843523297,4,-5,0,1,6,0,0,1
1620223843523297,-20,-3,-6,-7,-15,6,-13,-4
1620223843532252,-15,0,4,18,22,-16,1,2
1620223843532252,-1,10,16,0,10,23,14,2
1620223843546263,0,-5,-12,-9,-13,-17,-16,-6
1620223843546263,2,-7,1,-1,-3,7,14,13
1620223843562287,16,2,-8,-19,4,5,31,8
1620223843562287,-7,-4,-13,-5,-19,-10,-12,-2
1620223843569163,-5,3,17,22,13,5,9,2
1620223843569163,1,-1,-8,-16,-16,1,-11,-1
1620223843577278,5,2,10,0,-6,-2,4,-1
1620223843577278,-2,-2,-6,-12,4,-4,14,2
1620223843583312,4,-3,-1,12,-5,-2,-8,1
1620223843583312,-6,7,9,-4,1,1,0,-2
1620223843592217,15,-10,-12,-14,0,-6,-26,-3
1620223843592217,-23,7,4,25,16,5,3,-5
1620223843606232,-5,-11,-18,-10,-2,12,3,-1
1620223843606232,4,3,7,4,-13,-15,16,1
1620223843615620,-7,-3,-5,-5,-1,1,-13,-4
1620223843615620,4,-7,-7,-6,-3,4,1,-1
1620223843629161,-1,7,-1,-1,-3,-4,-7,2
1620223843629161,4,-5,-5,-3,11,9,9,-4
1620223843637361,-3,1,-6,-5,-2,-4,0,0
1620223843637361,-2,-4,6,-8,6,-8,-3,-3
1620223843643369,-4,-6,5,4,-16,4,7,-1
1620223843643369,3,3,-7,-12,-2,-13,-13,-3
1620223843652217,-1,-1,8,7,-11,-2,-8,-3
1620223843652217,9,-1,0,1,10,-1,8,3
1620223843666604,0,-2,-8,0,8,7,-6,2
1620223843666604,-6,-2,4,5,-6,-8,9,1
1620223843675179,7,2,2,2,14,6,-2,1
1620223843675179,-14,0,-1,4,0,0,-2,-4
1620223843688214,5,-5,-6,-17,2,-9,-1,-1
1620223843688214,-17,1,-3,18,0,3,-9,-2
1620223843697215,6,0,-4,0,-14,2,0,-2
1620223843697215,-8,0,3,-6,-1,1,-4,-3
1620223843703327,10,8,7,1,-14,2,2,-6
1620223843703327,3,-13,-11,-14,3,-5,-11,-3
1620223843712532,-7,8,-3,-1,7,-5,-8,1
1620223843712532,12,-3,0,10,-3,4,6,4
1620223843726626,-12,-5,-6,7,7,-5,-2,-2
1620223843726626,3,2,4,13,-6,3,-18,-2
1620223843735663,-4,-8,-3,-20,4,-4,2,-2
1620223843735663,23,-7,-16,11,1,-3,1,2
1620223843748415,-19,3,11,-16,1,4,1,-5
1620223843748415,-7,-2,-10,-2,-1,2,-5,1
1620223843757394,-9,-5,-2,-10,0,-5,4,0
1620223843757394,7,3,5,-17,0,-2,13,3
1620223843763444,3,-3,-10,20,1,-2,-13,3
1620223843763444,3,3,11,12,3,3,10,1
1620223843772452,2,-5,-9,-14,-22,-15,-7,3
1620223843772452,-10,-6,-7,-3,-7,5,3,-4
1620223843786532,8,1,13,-4,5,-1,12,-1
1620223843786532,1,0,-3,9,8,3,3,1
1620223843795538,-1,12,11,11,7,-1,-7,-2
1620223843795538,3,-7,-7,-5,-8,-12,-10,1
1620223843808224,-6,-4,-9,-11,-3,1,5,0
1620223843808224,21,2,15,-23,-3,1,-4,0
1620223843817328,-7,-5,-3,36,14,8,1,-3
1620223843817328,-34,-2,-2,4,1,-3,-21,-5
1620223843823381,6,0,-1,2,-21,5,-2,-1
1620223843823381,-6,0,4,1,20,-3,1,-2
1620223843832218,6,-1,-5,-8,-3,7,5,1
1620223843832218,8,1,16,3,-2,-1,-20,-7
1620223843846572,-3,-5,-2,6,6,-10,-12,-2
1620223843846572,-10,-3,-14,-9,-14,1,-9,-1
1620223843855221,5,-7,3,-26,-2,2,6,2
1620223843855221,2,3,6,34,8,2,11,5
1620223843869166,2,3,-3,-25,5,10,-12,-8
1620223843869166,2,-1,-1,13,-16,-12,0,5
1620223843877353,-7,-4,-1,-12,-6,-4,10,-7
1620223843877353,29,-4,-21,4,22,3,-2,3
1620223843883287,-34,8,29,-11,-31,-6,15,-2
1620223843883287,11,-2,3,19,4,8,-2,1
1620223843892437,-14,-6,-23,-15,7,-4,-8,-5
1620223843892437,-4,5,17,-10,-5,1,-2,-7
1620223843906218,12,0,-10,14,16,-1,4,4
1620223843906218,2,2,3,-2,-6,-3,3,-1
1620223843915170,-7,-2,7,16,2,6,2,-2
1620223843915170,3,2,-7,-19,-1,0,-2,4
1620223843929137,6,-9,-7,-1,-14,-16,-13,-4
1620223843929137,-11,2,2,12,3,10,-4,-1
1620223843937195,11,3,-8,7,0,-7,1,5
1620223843937195,-5,3,11,-5,-5,2,15,-8
1620223843943179,3,0,-3,2,2,-1,4,3
1620223843943179,-17,-12,-9,-28,2,8,-11,-6
1620223843952201,-5,2,1,11,-9,-6,-10,-6
1620223843952201,0,-6,-12,2,-17,-5,23,11
1620223843966593,-1,6,14,-1,14,-5,-44,-6
1620223843966593,10,3,-4,-15,-8,5,7,-2
1620223843975506,27,-5,4,8,11,5,3,2
1620223843975506,-30,0,-9,-11,-12,-10,-14,-5
1620223843988329,5,-4,-10,1,-4,-1,5,-1
1620223843988329,-2,-2,4,18,6,-7,6,0
1620223843997341,-1,-4,-13,3,2,10,-7,0
1620223843997341,7,9,16,-6,-18,-10,-8,-3
1620223844012205,1,-6,-9,19,16,-2,14,9
1620223844012205,-1,2,1,-14,1,-3,-9,-8
1620223844014175,-17,-2,12,9,17,2,3,-2
1620223844014175,-1,-8,-15,-24,-30,1,7,-2
1620223844027131,18,1,6,-9,0,10,-13,0
1620223844027131,-19,1,-5,18,16,-9,-12,-2
1620223844034872,1,-6,-6,-8,-12,-3,14,-1
1620223844034872,-3,1,9,4,10,2,-3,0
1620223844048254,3,1,7,-5,-6,0,7,-2
1620223844048254,4,-1,0,-25,4,-7,11,1
1620223844057256,3,4,8,22,4,17,-5,-3
1620223844057256,-1,-2,2,16,11,-13,-2,-1
1620223844072362,-1,-6,-17,-4,3,6,13,2
1620223844072362,-10,-9,-13,-17,-41,-4,-7,-2
1620223844074260,-3,13,14,-10,3,-16,-8,6
1620223844074260,6,-3,12,8,-6,9,-1,-1
1620223844086489,-21,-1,-13,-4,0,0,1,-2
1620223844086489,2,4,13,13,5,3,1,1
1620223844095291,8,-5,-12,-20,-5,0,-15,-1
1620223844095291,3,0,3,12,5,4,2,0
1620223844108256,0,1,4,-13,1,-3,6,0
1620223844108256,8,1,-1,26,-16,-13,-7,-2
1620223844117233,-11,-13,-21,-23,14,2,2,-6
1620223844117233,5,6,-8,6,7,1,-3,-1
1620223844132232,-1,-1,9,0,5,-6,4,0
1620223844132232,5,4,6,-19,-9,2,8,3
1620223844134230,-9,-1,2,2,-15,-10,-1,-1
1620223844134230,-3,-2,-7,-8,-3,-3,-25,-9
1620223844146651,12,-13,-14,-10,5,2,10,10
1620223844146651,-18,7,11,13,6,0,23,-1
1620223844154633,-3,1,-1,-4,15,5,-2,1
1620223844154633,0,-6,-5,-27,-32,-10,-9,-5
1620223844168664,-5,1,-15,22,3,6,11,0
1620223844168664,15,-6,9,-7,0,-8,-41,-4
1620223844177332,6,-1,-7,2,-7,-1,-9,-2
1620223844177332,-6,5,-1,-6,-9,10,19,3
1620223844192215,-2,-3,-5,-2,0,-12,-6,-3
1620223844192215,-7,-4,-7,-3,1,-2,4,-3
1620223844194213,0,-3,3,-1,-1,-2,0,0
1620223844194213,1,-1,-12,4,7,5,-6,1
1620223844206204,2,4,23,21,2,-3,-1,-2
1620223844206204,4,-1,-7,-16,-6,2,-5,-2
1620223844215281,-9,-3,-3,1,-6,1,-2,-4
1620223844215281,6,-1,4,7,33,4,18,12
1620223844229177,-7,-6,-2,-8,-28,-9,-41,-17
1620223844229177,-26,-2,-6,-3,0,1,-1,-2
1620223844237198,5,-2,5,-2,-7,2,10,-2
1620223844237198,7,8,1,21,-12,2,-24,3
1620223844252253,-3,-3,3,2,6,-8,-4,-3
1620223844252253,2,-2,-11,-7,9,7,5,2
1620223844254278,8,2,0,5,-8,-10,-3,-2
1620223844254278,-6,-5,3,-17,3,6,-5,-5
1620223844275247,-4,0,-1,-3,0,-9,1,-1
1620223844275247,9,-3,-6,9,16,2,3,-2
1620223844276245,-8,2,-2,-10,-7,6,2,0
1620223844276245,2,-4,6,1,0,-11,33,3
1620223844289113,0,1,8,10,13,9,1,1
1620223844289113,23,-3,-14,-38,-16,-6,2,2
1620223844297334,-21,2,13,23,-1,1,-7,-11
1620223844297334,11,-1,5,22,8,-8,-2,2
1620223844312227,9,-5,-17,-29,-3,16,3,-1
1620223844312227,-28,-1,0,22,15,-13,3,-4
1620223844314224,12,1,4,4,-4,7,11,8
1620223844314224,-3,-6,-11,-35,-12,-10,-19,-6
1620223844326304,2,1,-7,10,10,7,18,2
1620223844326304,14,1,7,9,-7,-5,-36,-6
1620223844335229,-7,0,-1,-1,-2,4,28,11
1620223844335229,4,-8,-7,-10,3,4,10,-3
1620223844348223,-9,11,1,6,1,-5,-3,4
1620223844348223,-7,1,8,0,2,-1,-21,-1
1620223844365622,4,2,7,-10,-11,-6,-18,-13
1620223844365622,-6,-5,-12,14,5,4,-5,-2
1620223844372204,2,-4,-7,-19,-7,0,10,4
1620223844372204,2,0,4,14,18,2,2,1
1620223844374198,0,-3,0,0,-21,-6,2,-2
1620223844374198,17,0,-4,-1,19,-1,-11,-1
1620223844386350,-21,0,3,-11,-16,5,1,-5
1620223844386350,-3,0,-7,9,3,-4,1,-2
1620223844395254,3,-4,-1,-15,1,5,-5,4
1620223844395254,-1,8,-2,-13,-8,-9,12,1
1620223844408219,12,-6,0,14,-6,-2,-11,-2
1620223844408219,5,-1,-7,-8,2,-1,16,4
1620223844417649,-14,-8,-2,-14,-1,-14,-49,-14
1620223844417649,-5,10,4,32,4,8,2,5
1620223844432171,2,-3,-7,-16,0,-4,0,-4
1620223844432171,4,-4,-4,-7,-21,7,24,4
1620223844434172,3,6,16,17,5,-11,-13,-3
1620223844434172,6,-9,0,11,9,10,4,3
1620223844446652,-15,2,3,-8,-9,-10,5,-2
1620223844446652,-1,-3,-10,-29,-9,5,4,-3
1620223844455281,-8,-6,-2,5,11,-1,11,6
1620223844455281,0,3,4,-5,-18,-11,-14,-7
1620223844469160,29,-2,3,16,4,5,-2,4
1620223844469160,-36,1,5,-10,-12,-7,4,-3
1620223844477366,9,4,-4,2,4,9,-14,0
1620223844477366,-9,-9,-7,-9,-4,-5,-6,-5
1620223844492238,1,-1,-15,-2,1,-5,0,0
1620223844492238,9,2,8,6,3,2,-6,1
1620223844494236,7,0,-7,-13,-6,-2,18,5
1620223844494236,-14,-2,-2,19,5,-2,-11,-2
1620223844506217,-6,-7,-7,-39,-8,2,-3,0
1620223844506217,8,2,7,29,9,-1,-1,-9
1620223844515679,-1,3,8,14,4,1,18,7
1620223844515679,7,-7,-6,-27,-12,4,-17,-8
1620223844529170,-47,-2,8,12,-4,-4,19,4
1620223844529170,7,4,2,2,13,2,-10,4
1620223844537234,9,2,0,3,-18,-5,-1,-1
1620223844537234,-10,3,0,-9,3,-10,-1,-4
1620223844552234,14,4,10,11,7,10,9,0
1620223844552234,5,-4,-13,-5,-10,-12,-2,3
1620223844554231,-15,-6,6,-12,2,1,3,-3
1620223844554231,7,9,14,24,7,3,5,2
1620223844566630,1,-5,-4,-10,-2,-7,-13,-4
1620223844566630,-4,1,4,24,15,13,9,-1
1620223844575696,5,-5,-8,-9,-10,-8,-9,-3
1620223844575696,-3,1,-3,-23,-17,-2,2,-7
1620223844589170,5,-2,0,1,9,-8,8,0
1620223844589170,-29,1,-1,-10,-9,-2,-4,-6
1620223844597380,4,0,-2,-18,15,2,-10,-1
1620223844597380,-13,-3,3,22,-4,5,2,2
1620223844612262,12,4,2,23,2,-1,-8,1
1620223844612262,15,-2,4,-35,-17,-5,-14,0
1620223844614259,-6,-5,-12,3,11,13,51,6
1620223844614259,-6,5,11,-18,-10,-10,-18,-3
1620223844626561,5,-4,-9,15,6,9,1,-3
1620223844626561,7,-4,-8,0,-1,-1,12,3
1620223844635234,-3,-1,-4,10,7,-7,-9,-1
1620223844635234,-1,-4,-9,-17,-8,1,4,-1
1620223844648220,-2,1,5,14,3,-3,-9,-3
1620223844648220,19,-2,-5,-7,3,6,-15,-7
1620223844657208,-26,-4,-11,-6,-12,6,-15,-8
1620223844657208,8,-4,-8,5,5,-16,11,5
1620223844672296,8,-3,-2,-6,-5,1,-7,3
1620223844672296,-19,2,8,5,-5,-7,-7,-2
1620223844679173,14,3,-3,6,14,7,-4,-2
1620223844679173,-7,-8,1,10,-1,3,-15,0
1620223844686301,5,5,3,-27,-7,-2,-26,-6
1620223844686301,6,-3,-6,10,14,3,7,2
1620223844695221,3,1,5,-16,-20,-10,-10,2
1620223844695221,-16,-1,0,22,11,9,1,-3
1620223844708209,-2,-7,-10,-5,-5,-7,9,1
1620223844708209,8,-1,9,-3,-9,0,-4,1
1620223844717243,4,8,12,16,14,-5,-10,-3
1620223844717243,-8,-4,-2,-19,0,1,7,2
1620223844732248,-8,-1,-2,-1,-3,-2,14,-8
1620223844732248,1,3,9,9,1,8,-12,0
1620223844739163,5,-3,-10,-6,-11,-6,1,-4
1620223844739163,-1,1,8,8,4,-1,7,7
1620223844746613,-7,-3,-2,-13,-13,-9,7,-2
1620223844746613,-15,-1,-3,-5,3,8,-19,-4
1620223844755243,24,8,-1,11,-5,-10,10,5
1620223844755243,-4,-3,-3,-6,5,4,2,-3
1620223844769158,-7,-3,1,-10,-3,1,-7,-1
1620223844769158,0,-7,-13,-3,4,-5,8,0
1620223844777310,-5,-7,-2,26,9,4,3,1
1620223844777310,-3,1,-13,-8,-15,-13,-5,-3
1620223844792094,2,5,6,8,15,4,3,2
1620223844792094,3,0,6,-5,-13,-4,9,7
1620223844799049,1,-2,-8,-11,-6,3,7,-2
1620223844799049,-2,-2,-3,-13,-16,-7,-9,-3
1620223844806058,-7,-1,9,23,7,2,14,2
1620223844806058,-15,-1,-8,-26,-11,1,8,2
1620223844815007,-7,-1,-11,1,9,-4,10,-2
1620223844815007,4,-7,-5,-3,7,0,14,-1
1620223844829180,8,6,15,-3,-5,9,-1,5
1620223844829180,7,0,2,15,-2,-5,-1,-2
1620223844838100,7,-4,-9,-5,3,-9,-9,-3
1620223844838100,-2,1,7,-28,-24,-1,7,-1
1620223844860189,-6,-1,0,2,5,-3,-11,-2
1620223844860189,-2,1,2,8,7,2,22,2
1620223844862159,-4,2,0,-6,-11,-5,-19,-3
1620223844862159,13,1,3,2,13,6,6,1
1620223844866543,-3,-1,-5,2,-9,-4,-15,-3
1620223844866543,1,-2,-9,-5,3,3,0,-3
1620223844875527,-4,-2,-2,4,14,4,-1,-1
1620223844875527,-3,-1,6,5,-5,-7,-15,-6
1620223844888222,-2,0,12,11,-4,1,12,2
1620223844888222,-11,6,-9,6,5,1,5,-2
1620223844897197,20,-5,4,-15,-6,-5,-14,-1
1620223844897197,-20,6,13,19,8,9,14,3
1620223844912180,6,-2,-14,-11,-19,-11,-11,1
1620223844912180,7,-9,-3,3,-2,0,-1,-2
1620223844919136,8,3,11,-8,-1,1,13,5
1620223844919136,-10,1,-7,-7,5,4,-4,1
1620223844926673,-3,-4,-8,7,5,1,-3,-4
1620223844926673,6,-3,4,8,-3,-1,-4,-1
1620223844935205,-12,-3,2,-3,1,-5,-5,-9
1620223844935205,7,1,2,-7,-19,-1,-11,-7
1620223844948469,0,1,0,-11,6,1,-3,-2
1620223844948469,2,-5,-7,2,0,1,4,2
1620223844957446,-20,-2,0,16,16,4,-1,4
1620223844957446,-2,-2,-6,4,-18,-3,1,-3
1620223844971366,-1,0,-4,-11,4,-5,-29,-4
1620223844971366,0,-1,-10,13,4,-4,-5,-3
1620223844979187,3,3,7,-12,-6,0,4,2
1620223844979187,8,-5,-10,11,17,-9,4,2
1620223844995243,-6,-1,1,1,-1,14,15,-1
1620223844995243,16,-1,-3,-13,-7,-4,-3,1
1620223844996241,-20,-2,-9,-10,-3,9,-3,-4
1620223844996241,-3,-6,-10,4,4,-4,-7,-1
1620223845008209,3,-1,7,11,-2,1,12,5
1620223845008209,3,3,9,-7,17,7,0,-1
1620223845017409,-6,-3,0,17,-15,-4,8,1
1620223845017409,8,-2,-1,-25,-10,0,10,4
1620223845032232,16,-7,-15,5,5,-13,-24,-1
1620223845032232,-15,-5,10,-3,-15,-6,-6,-7
1620223845039179,-18,11,6,-3,0,-1,6,2
1620223845039179,4,-11,-4,-8,7,5,3,1
1620223845055276,1,3,-4,-12,-19,-2,3,-3
1620223845055276,13,-2,-7,3,20,-9,15,2
1620223845056249,-9,-4,4,-3,-8,-1,-8,-5
1620223845056249,1,2,8,3,2,2,-9,-5
1620223845069176,-12,2,1,-11,-3,7,20,4
1620223845069176,0,-3,-13,8,3,-9,5,-1
1620223845077427,10,-1,11,8,12,5,-8,1
1620223845077427,5,9,20,16,-16,2,5,8
1620223845092227,0,-4,-9,-6,0,1,-2,-5
1620223845092227,-6,-1,-4,-11,-4,-1,2,1
1620223845098213,6,-2,-5,-1,3,-2,-4,-1
1620223845098213,-7,-4,-15,2,13,-3,12,-3
1620223845115507,-5,16,10,17,10,2,1,-1
1620223845115507,-11,-6,6,0,-12,-5,-14,-1
1620223845116506,31,-3,-4,3,-9,0,0,0
1620223845116506,-13,4,-6,1,8,3,-6,-4
1620223845129206,13,-6,-3,-18,0,2,15,0
1620223845129206,-19,6,2,17,5,-8,-2,3
1620223845137341,-1,-7,-10,-18,-15,-11,12,2
1620223845137341,5,-1,-7,-7,4,2,-7,-3
1620223845151623,1,-6,-10,0,2,-3,-7,-2
1620223845151623,1,-1,3,-22,-10,4,9,0
1620223845160709,-3,-5,2,9,3,6,-18,-4
1620223845160709,2,3,13,10,-7,-19,-8,-1
1620223845175485,-10,1,-2,-12,23,0,8,2
1620223845175485,6,-2,-4,2,-17,8,-38,-7
1620223845176484,-3,-2,0,11,12,-2,0,-4
1620223845176484,-5,0,-13,-23,-11,1,-8,-3
1620223845197224,-1,-2,9,11,-7,-3,14,8
1620223845197224,9,2,0,-3,9,6,4,0
1620223845199219,-6,-2,3,-13,-13,-11,-6,-2
1620223845199219,1,-1,-4,3,-5,-7,-10,-3
1620223845211437,-9,-5,-1,-6,0,3,-6,-6
1620223845211437,12,-1,-2,3,11,-4,4,4
1620223845220233,-11,-4,-8,-2,-9,1,1,1
1620223845220233,1,-4,4,3,-1,1,-7,-3
1620223845235344,-1,-3,-10,-19,-7,-2,-5,0
1620223845235344,-2,7,5,20,15,4,28,4
1620223845236348,-9,4,-4,-6,-11,3,-28,-6
1620223845236348,-5,-3,7,-6,-8,-4,-4,-3
1620223845248232,3,-3,-9,8,-3,-1,-7,2
1620223845248232,-5,-2,6,-10,-11,-5,0,-1
1620223845257434,-13,4,8,-6,7,-2,12,1
1620223845257434,25,1,1,11,22,8,9,5
1620223845271127,-21,-5,-9,-9,-23,2,-9,-6
1620223845271127,-8,-8,-3,-2,-8,-12,-2,-5
1620223845279912,4,0,-5,-1,12,2,5,-1
1620223845279912,-1,-9,-8,11,-9,13,-19,-10
1620223845295568,6,2,4,-8,-7,-15,24,6
1620223845295568,1,-4,-10,-11,-3,5,-8,-3
1620223845296568,15,2,-1,2,6,-3,10,8
1620223845296568,-19,-3,0,-1,8,7,-3,-13
1620223845308252,3,-6,-7,5,-3,-1,-23,-8
1620223845308252,-1,7,13,-12,-10,-2,-9,-1
1620223845317383,4,-2,9,7,2,-1,4,3
1620223845317383,-3,-1,-4,-1,9,1,14,2
1620223845330941,1,4,12,-1,-2,-4,-10,-5
1620223845330941,27,-3,-6,2,4,7,-4,4
1620223845340922,-36,6,-1,0,1,-2,-1,-6
1620223845340922,5,0,6,-2,-3,1,5,7
1620223845354902,-5,-1,6,5,-2,-12,-10,-6
1620223845354902,-2,-4,-22,-15,-2,6,1,-1
1620223845356878,8,3,11,10,-6,-1,8,-2
1620223845356878,-2,1,-6,7,-2,-4,-18,1
1620223845368879,15,0,4,3,19,2,12,4
1620223845368879,-22,0,7,1,-9,-3,-40,-15
1620223845377378,4,-11,-8,4,-3,-10,11,-5
1620223845377378,-5,6,-8,-5,-15,-1,-9,-2
1620223845391626,-4,-3,7,5,11,14,-22,-5
1620223845391626,-21,-3,-6,-1,-3,-4,17,7
1620223845400697,2,1,-5,-32,-31,2,1,2
1620223845400697,7,-4,-6,3,2,-7,2,1
1620223845415508,-2,-3,-7,2,2,-2,2,-2
1620223845415508,3,-1,-4,14,1,3,4,-1
1620223845417167,-2,0,7,2,18,-1,-16,-1
1620223845417167,4,-1,-1,-11,-12,-1,30,4
1620223845429169,-3,0,1,0,-15,-3,0,-3
1620223845429169,-5,-4,3,2,8,-14,12,4
1620223845443323,13,-2,-18,-15,-4,0,-8,8
1620223845443323,1,7,18,16,25,0,-7,0
1620223845451218,-14,0,-4,5,1,4,11,1
1620223845451218,-3,0,2,-25,-13,2,-5,-2
1620223845459850,7,-3,-6,42,-3,-6,1,-1
1620223845459850,13,1,-3,-27,-4,-4,19,5
1620223845475303,-20,2,-2,25,8,1,-17,-6
1620223845475303,4,-3,3,-14,12,3,29,0
1620223845476301,2,-4,-6,-3,7,14,-4,1
1620223845476301,4,-6,2,-2,-1,0,0,-1
1620223845489168,-6,-1,-8,-22,-13,-12,2,-1
1620223845489168,-1,4,9,3,-2,-2,-12,-8
1620223845503229,-5,0,-1,5,1,-3,5,-7
1620223845503229,-10,-8,-11,-9,5,8,18,3
1620223845511208,28,-1,14,0,-6,-6,-8,0
1620223845511208,-22,3,-3,5,4,-1,-16,-6
1620223845520210,4,-1,-12,-21,1,0,4,4
1620223845520210,-4,4,24,34,-1,7,0,4
1620223845535449,9,-4,-17,-16,7,-8,4,-2
1620223845535449,15,-8,-3,-3,-6,0,8,3
1620223845536449,-25,8,5,-12,8,12,16,-5
1620223845536449,-5,-2,-10,-3,-11,-12,-11,-5
1620223845549184,4,2,10,-9,-13,5,1,6
1620223845549184,2,-1,-14,20,5,-3,-2,-1
1620223845557220,1,-5,15,8,4,-11,-21,-3
1620223845557220,7,2,-10,-9,-2,-1,35,-3
1620223845571122,-22,0,-5,0,1,5,0,2
1620223845571122,3,-2,1,-3,1,-3,-1,0
1620223845579789,3,0,3,20,8,-1,-4,-1
1620223845579789,3,1,9,-4,-7,0,4,4
1620223845595262,10,-4,-4,-18,-13,-6,-6,-5
1620223845595262,-2,-1,-11,28,26,4,5,1
1620223845596259,-2,-3,7,-15,-9,3,-6,3
1620223845596259,-1,-1,8,0,-3,-4,-3,-3
1620223845609236,1,2,-13,-6,-9,-1,-6,-1
1620223845609236,12,-1,3,0,8,5,-9,1
1620223845618222,-11,-1,-1,-14,-6,-3,15,0
1620223845618222,-5,-5,-18,4,4,15,-10,-3
1620223845631586,-11,3,26,16,13,-20,3,2
1620223845631586,30,0,2,-16,-10,-6,11,2
1620223845641133,-11,5,2,19,-9,-3,0,-4
1620223845641133,-1,-4,-4,-17,4,4,-11,0
1620223845655123,5,2,7,23,5,3,-9,-8
1620223845655123,-8,-6,6,10,3,6,6,4
1620223845657090,6,-1,3,-36,-25,-5,-4,-3
1620223845657090,-10,-4,-7,2,0,-11,-17,3
1620223845669056,1,-1,-9,-6,18,4,6,-3
1620223845669056,-10,-2,7,-15,-35,-12,-11,-5
1620223845677390,4,3,3,21,12,10,-5,1
1620223845677390,-1,-1,3,-23,-8,-16,-22,-4
1620223845691068,7,-5,-1,21,10,9,9,1
1620223845691068,-21,2,1,-15,-14,-3,-10,-6
1620223845699926,8,-1,-6,-9,-6,-12,-1,-2
1620223845699926,-14,-1,8,14,10,6,10,-6
1620223845714284,2,1,12,-3,0,-1,22,9
1620223845714284,2,2,-12,-3,11,4,-39,-7
1620223845722232,7,5,10,1,-14,-8,-3,-1
1620223845722232,0,-3,-2,-3,11,-5,8,1
1620223845737266,-2,-6,-16,-3,-2,0,-6,-1
1620223845737266,-3,-1,2,8,6,6,9,2
1620223845739260,5,6,14,16,-2,9,-6,-3
1620223845739260,30,-3,-7,-4,-11,-7,-6,-1
1620223845751256,-27,5,9,8,-7,-1,-4,-3
1620223845751256,3,-6,-8,-19,1,2,10,-8
1620223845760232,-21,-10,-14,10,7,-5,-4,2
1620223845760232,3,3,-6,-18,-7,4,-3,0
1620223845773940,11,0,3,2,-8,-6,-3,1
1620223845773940,-8,5,5,5,5,8,9,-1
1620223845782212,11,-4,-4,-7,-7,-4,4,1
1620223845782212,-14,-7,-3,6,1,5,-26,-10
1620223845788245,3,-2,-3,-36,-17,-6,23,2
1620223845788245,-6,-6,1,14,-5,-6,-6,-2
1620223845797246,2,6,-6,2,-1,13,1,-2
1620223845797246,11,3,15,5,14,-5,15,5
1620223845811214,10,-5,-5,-1,-3,-4,-20,-5
1620223845811214,-21,0,-15,-8,-4,4,15,-1
1620223845820441,21,-8,10,-6,-8,-3,1,4
1620223845820441,-28,-1,-5,1,5,-5,8,-6
1620223845834272,12,6,6,14,9,6,-6,3
1620223845834272,8,-2,1,-2,-11,-10,-1,2
1620223845841619,-12,-12,-16,-15,-10,-5,-12,-8
1620223845841619,6,6,6,20,22,4,8,8
1620223845849174,-5,-9,-11,-18,-1,5,-6,-2
1620223845849174,1,6,-2,4,2,-7,-42,-6
1620223845857426,-1,1,0,-10,-2,4,0,-2
1620223845857426,8,3,-4,8,4,-1,-5,1
1620223845871041,13,-6,-8,0,3,7,23,1
1620223845871041,-23,11,5,0,-4,-2,-6,-2
1620223845880167,5,-4,-12,-10,16,-4,-7,0
1620223845880167,11,-12,-9,-3,-22,5,0,-7
1620223845894856,-20,2,4,8,-6,0,3,-5
1620223845894856,12,3,12,-5,-4,-1,12,1
1620223845900872,-5,-1,-9,5,10,-5,0,-1
1620223845900872,-2,-2,-17,-7,8,2,-7,0
1620223845917793,-2,-3,-9,-4,-27,-4,-6,-3
1620223845917793,5,-1,16,-3,6,1,9,7
1620223845918792,-6,-2,-8,12,-3,-7,-41,-9
1620223845918792,-2,0,1,1,-4,-1,6,-1
1620223845931688,0,3,-5,-5,15,18,-17,0
1620223845931688,3,0,0,4,-32,-29,7,2
1620223845939904,-5,-11,-8,-8,13,16,18,-3
1620223845939904,-14,3,2,-10,-3,-8,-6,1
1620223845954283,27,10,21,18,18,3,11,4
1620223845954283,-26,-6,-6,-8,-12,-2,-34,-11
1620223845961573,13,4,11,8,-3,-4,12,3
1620223845961573,-9,-4,-10,0,6,-2,-2,-1
1620223845977938,-6,-7,-18,-11,-14,-14,8,-2
1620223845977938,8,-5,9,-13,18,14,1,1
1620223845978942,6,7,7,5,-13,-1,-1,3
1620223845978942,-5,3,7,4,6,7,-3,0
1620223845991108,-5,-5,3,3,-17,-9,10,-3
1620223845991108,7,-5,-12,-13,5,0,0,-1
1620223846000090,-13,-4,-10,1,-2,3,2,-3
1620223846000090,6,-4,3,-4,-2,5,1,-1
1620223846014053,-10,6,-5,-1,6,4,-8,-3
1620223846014053,-1,-1,6,7,-7,-10,9,1
1620223846021011,-4,-2,-11,-8,10,1,11,4
1620223846021011,1,-3,-5,-2,-5,-10,0,0
1620223846038104,13,0,11,6,-5,-2,-5,-2
1620223846038104,-23,-2,-10,9,6,-1,18,-5
1620223846040103,3,2,10,-14,-10,7,-2,-3
1620223846040103,-4,-1,-5,-11,-5,-4,12,1
1620223846051294,-3,-6,-6,11,-3,-2,-3,1
1620223846051294,11,-3,-10,-9,-4,-2,-11,2
1620223846060195,-8,-6,6,19,13,-4,29,0
1620223846060195,1,5,-6,-15,-9,9,-6,-3
1620223846074856,-2,-1,-4,10,6,-12,3,6
1620223846074856,2,1,3,-9,-9,-7,7,-1
1620223846081699,-11,-4,-9,-21,-5,-3,7,-1
1620223846081699,5,0,6,7,-13,-4,-9,-3
1620223846098117,-12,-11,-10,-8,11,11,-7,-3
1620223846098117,10,11,-6,0,-4,-3,-7,3
1620223846099419,1,-7,-2,10,7,-8,-10,-8
1620223846099419,-15,-1,2,-27,-17,-5,-8,-3
1620223846110854,30,-2,-2,4,5,-11,-9,0
1620223846110854,-19,5,21,8,3,15,16,1
1620223846119946,2,6,3,-20,-3,2,-38,-3
1620223846119946,5,-1,5,36,2,-14,3,4
1620223846134253,14,-2,1,-9,-7,1,-39,-12
1620223846134253,-16,-2,0,5,12,12,6,6
1620223846141216,3,-3,-6,0,-8,-19,-5,-2
1620223846141216,0,-1,2,-13,4,4,-3,-2
1620223846157356,-10,5,11,3,-7,3,-3,4
1620223846157356,12,-11,-10,-2,2,-3,12,-2
1620223846159353,-4,11,-2,1,-8,2,-1,0
1620223846159353,0,-3,5,5,10,2,9,3
1620223846171249,-1,-2,-10,-11,8,-6,-9,-11
1620223846171249,-10,-2,8,18,-11,14,11,-2
1620223846180327,-5,-9,-9,-26,-4,-5,4,2
1620223846180327,6,2,-1,5,-10,-3,-1,-4
1620223846194103,-8,-2,-6,-7,11,13,10,6
1620223846194103,-3,3,-10,4,6,-11,21,6
1620223846201660,6,3,2,10,0,8,-40,-6
1620223846201660,-15,-3,-7,-12,-5,-7,-2,-3
1620223846218069,3,-3,0,3,7,-4,2,1
1620223846218069,12,0,-3,-25,-19,1,-7,2
1620223846219070,-6,-1,-6,7,15,-2,30,1
1620223846219070,7,1,3,-1,-20,-8,-9,-3
1620223846231715,-9,1,1,-2,0,5,-7,1
1620223846231715,13,-3,-3,28,22,2,5,-1
1620223846239918,-14,2,-5,-11,-9,-5,-6,-3
1620223846239918,2,-4,6,-12,12,8,-11,-2
1620223846254259,-7,1,-1,0,-9,-9,31,7
1620223846254259,1,0,4,4,-2,-3,-10,0
1620223846261600,0,-6,7,2,1,3,0,4
1620223846261600,-11,5,-5,0,-9,-1,-30,-7
1620223846278490,-13,2,-1,-1,3,3,2,1
1620223846278490,6,-6,-6,-1,13,-14,5,-7
1620223846279281,10,-7,-8,0,-13,0,-14,-1
1620223846279281,-1,1,17,8,14,0,8,2
1620223846291673,-10,-5,-19,-22,-13,0,-16,-12
1620223846291673,14,4,2,9,0,-2,-6,4
1620223846308134,3,1,7,-9,10,-1,22,0
1620223846308134,-5,-1,-10,14,-2,4,4,0
1620223846314248,-2,-6,4,8,-9,-3,-2,-4
1620223846314248,0,-3,-3,-12,8,2,-9,-1
1620223846321561,-2,0,-3,6,8,-3,-9,4
1620223846321561,3,-1,6,5,-1,0,10,-7
1620223846337418,3,3,-5,-22,-2,3,18,8
1620223846337418,-8,-7,-9,3,-9,-3,-46,-8
1620223846344944,-6,11,7,11,1,-2,11,2
1620223846344944,3,-6,-6,4,7,-3,16,2
1620223846351143,4,2,4,7,-6,-8,-38,-1
1620223846351143,-1,4,4,-18,1,2,7,-1
1620223846359942,6,-3,8,0,-5,-1,0,-3
1620223846359942,6,0,-6,-2,-3,7,12,3
1620223846374244,-12,-2,-9,-5,-4,-14,2,-5
1620223846374244,5,1,17,21,9,1,0,3
1620223846381722,0,-1,-16,-8,-5,4,6,0
1620223846381722,-1,3,-1,4,0,1,2,3
1620223846398119,-3,-5,3,-3,11,2,6,-5
1620223846398119,-3,-2,-3,3,-22,-9,2,-2
1620223846399116,4,2,10,1,13,-1,30,3
1620223846399116,-1,-4,-8,-13,-18,-1,-10,-9
1620223846411344,12,3,2,7,12,3,-2,1
1620223846411344,-15,-7,-14,-11,0,-1,-18,-1
1620223846420245,29,-4,-3,12,-8,3,13,0
1620223846420245,-35,-2,-8,-9,5,-8,-10,-4
1620223846434357,1,-3,13,-1,-6,-13,14,1
1620223846434357,1,5,7,3,-11,-3,-36,-6
1620223846441239,-3,-7,-11,-4,3,-4,-17,-7
1620223846441239,14,1,1,-4,5,1,2,4
1620223846457210,-2,1,-2,17,18,4,5,3
1620223846457210,-5,-5,-6,-9,-13,-1,15,-2
1620223846459747,-11,-4,0,-14,-8,1,-5,7
1620223846459747,3,5,-3,14,8,-12,-36,-9
1620223846471218,-12,-3,-3,1,-2,14,-5,1
1620223846471218,40,3,10,-3,-2,-5,19,1
1620223846479839,-19,0,-5,10,7,1,-12,0
1620223846479839,-6,-1,10,-6,-4,-6,6,3
1620223846494277,-1,-1,-2,-2,8,4,-23,-2
1620223846494277,6,3,6,-3,0,4,19,3
1620223846501258,1,-2,4,1,-9,4,19,0
1620223846501258,2,-4,-7,-20,1,8,6,-1
1620223846525627,-4,-1,2,12,-7,-6,-5,-6
1620223846525627,-3,-1,-5,1,2,-1,16,1
1620223846527248,-6,-5,3,-17,0,-5,-4,-1
1620223846527248,15,6,-5,23,13,-5,20,4
1620223846531714,-15,1,9,-11,-21,2,-15,-3
1620223846531714,-10,-9,-30,-11,4,-1,3,0
1620223846539927,26,3,13,11,-5,0,-6,-2
1620223846539927,-10,-3,-4,-2,2,3,3,-4
1620223846554277,5,5,2,-11,-2,0,18,8
1620223846554277,-10,-4,-3,19,18,-2,-12,-3
1620223846561372,-5,-3,-9,-16,-47,-19,-15,-7
1620223846561372,9,-2,10,5,-2,7,17,1
1620223846577179,0,4,16,14,-4,1,18,1
1620223846577179,-6,1,-1,14,33,6,-10,-2
1620223846585237,1,1,-3,3,15,0,9,4
1620223846585237,-3,-4,-9,-14,-14,-6,-28,-8
1620223846591747,-10,-4,-6,8,-1,-3,-1,-6
1620223846591747,-1,6,2,-31,-11,1,7,6
1620223846599953,3,-6,7,14,14,-1,1,4
1620223846599953,-7,8,-1,13,4,0,-2,4
1620223846613936,-3,0,-5,-11,-22,-3,7,-3
1620223846613936,5,1,-2,-8,-2,-1,-19,-3
1620223846622953,-6,-3,-5,-10,4,1,-12,-5
1620223846622953,1,-7,-2,-8,-9,-9,3,1
1620223846637238,13,3,3,-12,21,2,6,5
1620223846637238,-6,-3,-9,18,-13,-1,3,-6
1620223846643220,-7,-1,0,-27,7,2,5,-1
1620223846643220,1,-2,0,10,-2,-9,-25,0
1620223846651227,1,3,0,1,7,-1,-4,2
1620223846651227,-2,-3,1,-18,-26,-3,-7,-11
1620223846660174,-5,3,-12,5,19,7,13,0
1620223846660174,29,-2,15,-7,-23,-11,4,6
1620223846673224,-36,-6,-8,14,7,2,0,-4
1620223846673224,-1,4,12,7,12,0,2,2
1620223846683122,1,-4,-10,-6,-6,-1,-21,-7
1620223846683122,-7,9,1,-10,11,3,11,-7
1620223846697087,21,-6,-9,-5,-15,-3,1,9
1620223846697087,-1,2,6,-3,-6,1,-2,3
1620223846704068,-14,-3,0,14,-12,-3,-5,-1
1620223846704068,1,-7,-6,-4,12,-4,21,-3
1620223846711068,2,-2,-6,-13,-8,-1,18,-2
1620223846711068,-6,-4,-4,11,-6,5,7,2
1620223846720022,3,3,2,4,12,-3,-9,-4
1620223846720022,12,-3,-3,-2,-9,11,-13,-1
1620223846734244,7,-3,-6,-12,-1,-7,-5,-1
1620223846734244,-24,1,-2,-10,-13,-14,-3,-5
1620223846742244,-1,-2,-1,15,19,8,12,2
1620223846742244,-7,-3,5,2,-5,3,-4,-2
1620223846757464,15,7,7,12,7,2,1,6
1620223846757464,15,-2,-5,-21,-3,1,-15,1
1620223846764251,-2,3,10,16,-14,-11,-3,-2
1620223846764251,-18,-5,-7,-2,16,16,13,4
1620223846771714,-1,-7,-22,-35,-25,-12,-23,-9
1620223846771714,0,-3,6,11,15,2,18,-1
1620223846779976,1,0,-3,2,-5,-1,24,5
1620223846779976,9,5,-3,-8,2,-2,-4,1
1620223846802391,-18,-3,3,30,7,2,-18,-6
1620223846802391,3,1,1,-23,-12,-15,14,1
1620223846804385,1,-5,10,2,-15,7,-21,-2
1620223846804385,-23,-7,-8,-6,-7,-3,-1,-12
1620223846817353,12,5,1,5,13,9,0,4
1620223846817353,-12,-6,-12,-8,-2,-5,-8,-4
1620223846823359,-1,1,3,4,-6,-2,1,1
1620223846823359,-5,-3,-5,0,6,-7,-6,4
1620223846840560,7,1,5,-5,-8,3,-2,-1
1620223846840560,-2,-2,17,27,9,4,-9,-2
1620223846842556,1,3,-13,-31,-13,-5,-1,-2
1620223846842556,1,-4,3,9,13,-3,-14,-1
1620223846853249,9,-5,-5,1,-3,6,47,4
1620223846853249,-15,-3,-3,-8,-3,-2,-12,-3
1620223846862375,-2,2,2,-10,-22,-5,3,1
1620223846862375,0,-2,0,27,1,-16,-11,-1
1620223846877365,-4,1,6,-23,4,8,14,1
1620223846877365,23,-1,3,8,6,-1,-21,-11
1620223846884246,-19,-2,-11,9,19,11,-11,-7
1620223846884246,2,2,6,-5,-10,-1,12,4
1620223846900635,29,0,7,-9,-23,-17,-19,-3
1620223846900635,-16,9,8,24,18,17,15,3
1620223846901634,1,-5,-9,-15,-2,-10,-7,-1
1620223846901634,-7,1,-8,-7,-8,9,13,2
1620223846914126,-7,-2,3,14,14,-8,-43,-13
1620223846914126,8,-4,-11,-42,-31,-4,16,11
1620223846923146,-1,3,11,29,1,-4,11,2
1620223846923146,-1,-4,-12,-8,7,13,-8,-2
1620223846937220,-6,0,-4,1,4,-14,0,0
1620223846937220,1,-3,-16,-6,-4,5,5,0
1620223846944199,-2,1,9,-14,0,7,-2,0
1620223846944199,5,-4,6,-8,-12,-15,-1,0
1620223846960157,-5,3,-12,-2,17,4,5,-9
1620223846960157,-10,-3,3,-4,-35,-7,-28,-6
1620223846962151,-2,-8,-14,14,39,7,11,0
1620223846962151,13,5,-3,0,-22,2,18,7
1620223846974182,8,-6,1,-7,-12,-2,-16,2
1620223846974182,-14,4,7,0,21,-4,20,5
1620223846983234,4,1,4,24,3,0,-39,-10
1620223846983234,-10,-1,-6,-5,-15,-4,16,-4
1620223846997416,-17,-7,-3,4,16,10,7,3
1620223846997416,11,0,-3,-3,11,12,21,6
1620223847003435,-6,-3,-12,-15,-22,-9,-1,-1
1620223847003435,5,4,15,2,24,-1,4,1
1620223847020222,-5,-1,-9,-2,-17,-4,-1,0
1620223847020222,4,-1,-1,-7,-10,5,-13,-4
1620223847022245,-7,0,8,-1,15,-4,5,-11
1620223847022245,-2,-4,-13,-9,-3,-10,-7,3
1620223847034182,-10,1,-5,15,-1,6,-20,-4
1620223847034182,-5,-1,15,-4,8,0,-8,-4
1620223847043120,43,-7,-6,9,5,5,15,7
1620223847043120,-47,3,-1,2,-1,-1,-44,-19
1620223847057340,-5,-1,1,-17,-15,-7,13,2
1620223847057340,10,-4,-9,9,3,-3,4,0
1620223847063547,2,5,6,-9,-11,1,7,3
1620223847063547,10,-8,-10,13,21,6,-4,1
1620223847080600,-8,2,22,6,-7,-2,-2,0
1620223847080600,0,-3,-14,-17,4,3,-10,-5
1620223847081600,-5,-1,4,-9,-31,-19,-1,0
1620223847081600,-1,-2,-3,16,11,2,2,0
1620223847094281,-4,-3,-9,-9,6,0,13,5
1620223847094281,7,0,-1,0,1,2,17,5
1620223847103239,9,1,2,-14,-9,6,-1,3
1620223847103239,19,-2,-5,24,8,-8,-1,-1
1620223847117469,-24,-3,-1,-9,-5,2,2,-6
1620223847117469,1,1,-10,8,-4,-2,-1,3
1620223847124120,-6,0,-7,-1,5,-1,1,1
1620223847124120,7,7,18,6,-2,8,10,5
1620223847140110,7,-2,-4,-5,13,1,10,-1
1620223847140110,-9,-14,-18,5,-6,4,1,-7
1620223847143106,6,11,-1,-16,4,6,-7,2
1620223847143106,5,1,6,-5,-2,-8,1,1
1620223847153275,-4,0,2,-1,-2,2,5,0
1620223847153275,-1,2,5,-2,-9,-8,-11,-4
1620223847170469,-11,-9,-9,6,14,2,0,5
1620223847170469,-6,1,0,-13,-14,-3,-3,-5
1620223847177475,2,-1,-10,-6,5,-3,1,2
1620223847177475,31,8,14,11,-13,-8,-23,-2
1620223847184258,-24,-1,-3,-11,8,2,-34,-9
1620223847184258,-16,-4,-7,1,8,1,-3,-3
1620223847200630,8,2,7,23,0,-2,-11,-4
1620223847200630,-7,-2,-12,-22,0,-8,17,4
1620223847201630,6,-1,3,6,-21,-1,-4,-2
1620223847201630,5,-2,10,-5,2,0,0,0
1620223847214280,-2,-4,0,-13,-6,4,-2,-2
1620223847214280,6,9,10,27,11,8,-11,0
1620223847223258,-3,1,-2,3,3,-5,10,1
1620223847223258,-3,-5,6,-7,-3,-2,5,2
1620223847237345,17,-8,-13,3,1,-1,-5,0
1620223847237345,-33,5,23,11,22,-2,5,1
1620223847243355,-2,-4,2,-9,-2,-3,-19,-4
1620223847243355,7,0,-10,-21,-41,-5,-8,2
1620223847260644,3,-3,-2,2,0,1,13,-1
1620223847260644,4,-4,-3,-6,9,-7,-4,-3
1620223847261644,-7,5,3,-9,-1,-9,17,1
1620223847261644,-2,1,6,12,3,14,2,1
1620223847274225,4,2,-2,-3,-6,-8,-14,7
1620223847274225,-7,-3,-2,4,-2,-1,-3,-9
1620223847282385,19,-4,-2,5,-10,-7,12,2
1620223847282385,-23,-4,-6,-22,12,3,-2,-7
1620223847297353,13,-2,-5,6,4,6,0,-2
1620223847297353,-6,-2,0,-3,3,1,-4,3
1620223847303366,11,-5,-3,-8,-18,2,19,-1
1620223847303366,-8,-2,-4,-1,7,-3,-29,-6
1620223847320274,0,0,-2,-9,1,-4,-2,-2
1620223847320274,0,1,1,18,3,-6,-6,2
1620223847321299,-1,-4,-6,-21,5,3,3,-3
1620223847321299,10,0,0,-1,-2,-2,5,2
1620223847334276,-12,-2,-3,-2,-6,6,7,-3
1620223847334276,22,-7,-25,-28,-20,-3,1,1
1620223847343251,-30,-4,9,21,38,-3,-5,-2
1620223847343251,31,8,7,-11,-38,-5,17,0
1620223847358135,-24,5,9,-19,-18,-10,17,-2
1620223847358135,-2,-4,-3,25,1,10,1,2
1620223847363684,7,-1,1,36,15,-1,5,-4
1620223847363684,-17,-8,-12,-17,-7,-4,-11,2
1620223847380209,4,2,1,9,11,1,-41,-9
1620223847380209,1,3,11,-4,-8,-2,10,2
1620223847382216,-3,2,1,-8,-14,-4,-3,-5
1620223847382216,5,-3,0,9,13,2,4,2
1620223847394204,7,-3,2,-6,0,2,11,1
1620223847394204,-24,-3,-14,-4,6,-10,-20,-12
1620223847403153,2,-6,-14,-25,-15,-4,3,6
1620223847403153,4,6,20,19,19,8,12,7
1620223847417894,-4,-1,-9,10,12,1,-18,1
1620223847417894,9,-2,4,-12,7,1,-7,-1
1620223847423884,13,1,-3,-5,-19,-6,-4,-7
1620223847423884,-25,-1,-19,-5,-1,7,14,1
1620223847440652,-4,0,13,0,3,5,4,5
1620223847440652,5,1,15,23,1,-6,1,-4
1620223847442649,-7,-3,-9,-15,-6,5,-21,-9
1620223847442649,7,1,-3,3,-4,-3,-11,7
1620223847453249,-4,-3,1,15,13,-8,6,-1
1620223847453249,1,-7,-5,-11,-13,-3,-4,-2
1620223847462538,-7,1,-1,-4,10,5,8,4
1620223847462538,6,-1,10,16,-9,-8,-1,-8
1620223847478116,-8,-4,-10,3,-3,-5,-1,-3
1620223847478116,24,2,4,-4,0,-1,14,8
1620223847484102,-23,2,3,-2,18,14,13,2
1620223847484102,-4,-5,3,-7,-22,-7,-35,-14
1620223847508010,5,-1,-2,-6,-8,-13,-6,1
1620223847508010,-14,1,-14,-4,7,1,9,2
1620223847509010,-12,-1,6,0,3,10,-12,3
1620223847509010,1,-1,-10,3,16,-2,6,-3
1620223847513993,-4,1,21,16,-4,-2,-3,1
1620223847513993,-1,-1,-12,-9,-3,6,16,-4
1620223847522971,7,-1,3,7,0,-4,-10,0
1620223847522971,2,5,0,-15,-8,-4,22,4
1620223847537343,1,6,1,12,2,15,9,3
1620223847537343,-5,-7,-1,-17,-6,-12,-3,-1
1620223847543354,4,-1,8,8,-4,0,-5,-2
1620223847543354,7,5,0,-4,2,-3,3,5
1620223847560598,-5,-2,0,-3,-4,1,-28,-7
1620223847560598,10,-5,-2,-16,0,5,-3,-2
1620223847561598,-10,-1,-5,26,9,6,4,1
1620223847561598,1,-1,-5,4,4,-5,-4,-1
1620223847573286,-14,5,-1,-2,-3,2,10,2
1620223847573286,-9,-4,0,-5,-9,1,-4,-2
1620223847583277,3,1,5,-10,6,-10,-8,-2
1620223847583277,3,-4,-7,0,-12,7,10,-6
1620223847597239,8,-4,-3,10,7,-3,6,-1
1620223847597239,-3,-2,-13,-16,-15,7,10,1
1620223847604169,-1,0,-2,-16,-1,-1,-6,4
1620223847604169,-4,-4,-2,15,8,3,-3,-4
1620223847619203,3,4,16,-22,3,-3,22,0
1620223847619203,-6,1,3,66,1,1,6,2
1620223847626798,25,-4,1,-12,-4,-10,1,0
1620223847626798,-28,-2,-5,-16,0,-1,-3,-5
1620223847634176,7,-1,-9,-4,-4,7,3,1
1620223847634176,-8,1,5,-1,-2,-3,-8,0
1620223847643150,7,-2,-12,0,-9,0,0,0
1620223847643150,11,1,-8,9,16,5,-1,-1
1620223847657111,-7,-14,-10,-7,-6,-12,6,-2
1620223847657111,31,12,16,-15,5,2,-4,-1
1620223847664188,-29,1,-17,11,-1,-3,-8,3
1620223847664188,2,-2,4,-2,-7,-4,-6,-7
1620223847679984,-3,1,-7,2,15,4,7,1
1620223847679984,2,-5,7,7,-1,-10,-38,-5
1620223847686341,3,1,1,-5,-23,-3,8,0
1620223847686341,-5,-9,-16,-11,16,0,-31,-9
1620223847694309,4,3,4,-7,-3,-1,1,-3
1620223847694309,-7,1,-3,-12,-15,-11,5,3
1620223847702247,15,1,-6,-6,29,5,15,-1
1620223847702247,-24,-2,7,-2,-21,-1,-16,-2
1620223847717200,6,-3,-5,-12,-4,-9,-2,-1
1620223847717200,0,1,-2,-4,1,-1,0,7
1620223847725809,-6,3,2,20,16,2,10,0
1620223847725809,11,-8,-12,-10,4,3,11,4
1620223847739503,-3,3,3,2,-6,0,-5,0
1620223847739503,-8,2,-6,-6,-4,2,6,0
1620223847746498,7,-7,1,11,-11,1,-10,2
1620223847746498,-19,1,-1,-10,8,4,26,6
1620223847762456,2,4,6,7,-10,-9,-42,-3
1620223847762456,0,-4,-10,-11,11,9,-13,-5
1620223847764435,-2,2,5,-9,-6,-16,-6,0
1620223847764435,6,-3,4,20,3,-1,3,4
1620223847785409,-1,0,2,-3,0,7,19,-1
1620223847785409,11,-2,-12,-10,-2,3,9,0
1620223847786409,-25,-2,-2,4,11,-6,-10,-6
1620223847786409,2,-1,-1,-10,-17,-6,-10,-5
1620223847800001,-1,0,9,6,3,-3,2,-1
1620223847800001,-4,0,-2,-3,-6,-2,10,-2
1620223847806010,13,2,2,7,14,1,-4,0
1620223847806010,2,3,6,-23,-11,-4,8,-14
1620223847823188,-3,-4,-4,22,5,11,29,14
1620223847823188,-4,-2,2,12,5,-2,-8,-1
1620223847824187,14,0,7,-22,-10,3,7,3
1620223847824187,-19,3,-5,17,7,0,-4,-3
1620223847837405,6,0,2,-5,-7,-4,10,0
1620223847837405,-5,-6,-2,-9,-10,-2,5,2
1620223847843392,14,-2,3,19,-6,-9,-5,-4
1620223847843392,-5,-1,1,-4,4,-7,-7,3
1620223847859999,4,-5,-12,5,-4,1,-4,-4
1620223847859999,-22,1,14,-1,10,-1,-6,-3
1620223847866127,-5,-5,0,-7,-20,-1,11,-5
1620223847866127,18,4,10,1,4,-4,-5,3
1620223847883121,1,4,-2,-10,-9,-2,1,0
1620223847883121,0,-2,1,-2,11,-1,15,-3
1620223847884127,-8,-3,-6,0,2,12,0,-3
1620223847884127,5,0,3,3,-9,-3,6,2
1620223847897113,-9,-12,-6,8,-2,-11,-5,-5
1620223847897113,2,6,3,3,5,2,-3,5
1620223847904102,-12,-3,-3,0,7,11,3,-5
1620223847904102,5,-2,-2,-9,-5,-10,-4,0
1620223847919023,4,7,-5,4,8,9,15,6
1620223847919023,-2,-6,7,-10,-22,-3,-3,-6
1620223847926836,-1,1,3,0,-2,-3,8,-1
1620223847926836,-3,-2,-5,6,7,3,-6,4
1620223847943010,1,-1,-3,-8,5,-2,-12,-5
1620223847943010,-18,-1,-7,-5,-9,2,6,2
1620223847946001,-6,1,0,-5,-3,-16,-10,3
1620223847946001,9,-1,-1,3,-2,4,32,8
1620223847956996,-10,1,5,4,-2,-6,-22,-5
1620223847956996,14,-3,-9,-22,7,-7,-8,0
1620223847963952,1,1,-5,22,-3,4,1,0
1620223847963952,-2,0,1,-14,-10,10,5,-7
1620223847979910,3,-5,-10,-13,-3,-6,-5,-4
1620223847979910,0,0,3,17,12,2,-9,-4
1620223847985894,2,0,5,1,-13,4,-26,1
1620223847985894,5,-1,1,-25,6,-10,-10,-4
1620223848003102,-11,3,-5,2,-1,13,-3,1
1620223848003102,-2,-8,-22,2,-9,-9,-2,-5
1620223848005096,-4,4,16,-12,1,0,1,-4
1620223848005096,7,-1,3,20,15,5,-1,4
1620223848017295,2,-4,-5,-10,0,-2,15,4
1620223848017295,-5,-2,-7,15,-7,-4,-28,-4
1620223848024299,1,-2,-7,-10,-5,-2,0,-3
1620223848024299,-6,2,8,1,-17,-2,-7,0
1620223848040017,-2,-3,-8,-16,19,1,7,-1
1620223848040017,2,2,14,14,-19,0,5,4
1620223848046758,2,-6,-10,-1,1,-14,-4,-4
1620223848046758,5,1,16,6,5,2,-2,2
1620223848062522,-3,1,-1,3,-12,-7,-10,-1
1620223848062522,-3,-5,-2,2,19,8,12,-7
1620223848070129,3,3,7,-31,-7,2,-4,4
1620223848070129,1,0,-11,34,-11,-1,15,7
1620223848077395,-5,-5,0,-25,-3,4,6,-6
1620223848077395,3,-4,-10,6,5,-3,-9,-4
1620223848084252,2,1,0,2,-7,-1,22,7
1620223848084252,-22,-1,-11,-13,12,4,-32,-1
1620223848100042,-4,0,8,4,-8,-12,-39,-13
1620223848100042,3,-1,-10,-14,-8,4,0,7
1620223848106132,4,-2,-5,-8,-9,1,6,-2
1620223848106132,-4,-7,-1,16,7,-3,-11,-9
1620223848130120,11,8,19,9,0,6,13,11
1620223848130120,-6,4,0,-13,18,-7,4,4
1620223848132110,2,-8,-16,3,-19,-1,-10,-6
1620223848132110,9,1,8,-1,11,0,-3,-2
1620223848136098,-5,-6,-15,-8,-2,0,1,-1
1620223848136098,0,-2,6,0,5,3,-1,-2
1620223848145079,-1,2,-7,-9,7,-3,8,0
1620223848145079,3,-2,2,-3,-5,5,8,-2
1620223848159062,-6,1,2,12,-7,-12,-2,-3
1620223848159062,7,-1,1,-6,-1,-12,-3,-1
1620223848166124,-6,-2,-9,16,10,-4,-10,0
1620223848166124,-3,-2,4,-18,-19,4,-8,-3
1620223848184185,51,-7,3,-11,11,-1,8,2
1620223848184185,-66,4,6,26,-3,-2,-23,-18
1620223848189273,-3,-2,1,-3,9,4,8,4
1620223848189273,-3,-8,-5,-4,-3,-7,20,0
1620223848196805,1,3,1,5,-1,3,-34,-1
1620223848196805,22,-1,-6,0,6,6,9,3
1620223848205211,-7,1,11,-14,-14,-8,-4,-4
1620223848205211,-1,-2,-11,10,0,2,4,-1
1620223848219128,-8,-5,-6,-6,4,8,13,2
1620223848219128,7,-1,-3,6,16,1,-4,2
1620223848228195,-5,-4,-14,-2,-18,-4,-11,-6
1620223848228195,13,10,36,-4,6,-6,8,7
1620223848243180,11,-5,-9,6,-3,-2,3,-2
1620223848243180,3,1,4,-3,-16,-14,-20,-9
1620223848249127,-25,-4,-12,-14,4,2,16,-1
1620223848249127,1,0,-23,-6,-11,0,-12,-8
1620223848256107,-9,0,15,15,16,8,5,-3
1620223848256107,13,-1,2,-16,-7,-9,-14,3
1620223848265112,4,-1,2,12,4,1,-7,-6
1620223848265112,1,2,-6,-1,3,-2,-7,0
1620223848280060,-13,-1,-4,14,-9,3,9,1
1620223848280060,9,-4,-8,-4,-7,4,12,-5
1620223848286355,2,8,16,3,4,-4,2,14
1620223848286355,-4,-5,-16,-9,0,-7,-27,-9
1620223848302248,-4,1,5,-8,3,-2,2,2
1620223848302248,1,0,-2,10,-12,-3,7,-2
1620223848304245,-3,4,-5,-3,4,18,-2,-2
1620223848304245,2,-3,1,-4,3,-14,13,3
1620223848316885,-15,-5,-19,-8,-6,-7,-13,-3
1620223848316885,5,5,36,6,-1,-7,12,3
1620223848325717,7,-7,-1,8,18,1,-5,-3
1620223848325717,-10,-2,-14,-29,-14,12,15,0
1620223848339325,-4,3,5,-16,-14,-3,-10,-2
1620223848339325,-1,1,5,27,24,9,11,7
1620223848346310,11,-2,1,4,-5,-15,-2,-1
1620223848346310,-25,-1,4,8,-21,-4,10,1
1620223848362268,-2,-3,-3,-18,21,4,-33,-9
1620223848362268,32,0,-4,-12,-8,6,-7,0
1620223848364258,-45,-6,3,17,3,-8,7,1
1620223848364258,26,5,-3,3,5,1,-10,5
1620223848376787,-3,1,-3,-9,-9,-3,25,-2
1620223848376787,-13,-3,4,1,-5,8,-3,-3
1620223848385196,13,-5,-15,-14,-2,-3,-23,-8
1620223848385196,2,2,12,-5,9,8,3,3
1620223848399186,-6,0,-2,11,6,-6,20,0
1620223848399186,-2,-2,-18,-7,-2,-1,10,3
1620223848406166,7,-1,7,-1,-7,2,-12,1
1620223848406166,10,-5,-2,4,8,-9,1,1
1620223848423144,-11,3,2,12,-1,5,-5,1
1620223848423144,-8,-5,-17,-20,-16,4,17,0
1620223848424136,2,4,16,0,20,-4,-2,0
1620223848424136,5,-2,-7,9,-15,4,-14,0
1620223848436234,3,-3,-18,0,1,-6,-4,-5
1620223848436234,-16,1,4,-4,1,-4,-2,1
1620223848445207,-3,-2,-6,10,8,8,7,-2
1620223848445207,1,-1,8,-1,-3,2,-7,-4
1620223848459170,-7,-3,-7,-5,-21,-22,13,-2
1620223848459170,4,4,-1,7,-2,10,-1,11
1620223848466152,4,0,4,-13,-7,-12,-4,-3
1620223848466152,-13,-4,1,-3,-1,5,16,-5
1620223848482205,6,-1,2,11,1,1,-1,5
1620223848482205,3,-2,-7,-6,2,-1,-1,3
1620223848484206,4,0,7,6,-13,2,-5,-10
1620223848484206,-14,0,-4,-1,11,-5,8,-2
1620223848497273,-13,-1,0,-5,-11,6,-6,2
1620223848497273,8,-4,-2,-4,14,-7,-7,-4
1620223848505255,-23,3,-1,5,3,4,16,2
1620223848505255,10,-1,-17,6,-3,-1,-5,4
1620223848519218,6,0,12,-23,-15,1,0,-3
1620223848519218,2,-4,6,-5,13,-5,-4,-1
1620223848526807,15,-2,-12,-11,-30,2,4,-1
1620223848526807,1,-2,-10,1,20,5,-3,-1
1620223848542217,7,-1,1,1,1,2,6,-2
1620223848542217,-5,-1,-2,-8,-2,-7,-12,-5
1620223848549226,1,-1,-2,6,1,2,-1,2
1620223848549226,-7,-2,4,5,-4,-8,-8,-6
1620223848556807,-5,-2,-4,-3,6,1,-15,-2
1620223848556807,-2,2,0,-13,-5,3,1,2
1620223848565799,1,0,4,10,7,-1,19,4
1620223848565799,5,8,2,8,-2,-7,-1,2
1620223848579200,1,2,5,18,4,3,-9,-3
1620223848579200,-3,1,-6,-19,-16,2,5,6
1620223848586278,-23,-7,3,-7,7,1,-44,-10
1620223848586278,1,-5,-3,-22,1,3,-4,1
1620223848602195,-8,0,-3,24,0,-8,17,4
1620223848602195,14,-3,2,33,9,2,2,-1
1620223848609202,5,0,4,-34,-11,-5,4,-1
1620223848609202,-7,-2,-9,11,-3,2,-1,-2
1620223848616180,13,2,8,-7,8,3,7,0
1620223848616180,-10,-5,-8,-7,-4,-9,-11,-6
1620223848625221,6,-3,-2,26,13,3,6,-2
1620223848625221,-2,0,-3,-16,-20,-6,-2,0
1620223848639971,0,-2,-1,7,-13,-4,-11,-4
1620223848639971,0,-1,-6,-26,14,0,3,-4
1620223848645985,-4,-1,-4,3,-4,-2,4,-2
1620223848645985,6,-2,3,0,9,-3,5,-10
1620223848662203,-4,-5,0,8,10,6,-25,11
1620223848662203,-21,2,-7,-2,-9,2,-8,-5
1620223848669005,2,1,0,7,0,-23,-3,5
1620223848669005,-2,-1,9,8,9,12,7,-1
1620223848676768,0,-5,-8,-12,-7,-1,4,-5
1620223848676768,3,4,2,5,-15,1,-14,-2
1620223848685207,5,-5,-17,-9,0,4,-2,-2
1620223848685207,-5,0,3,6,-9,-11,-7,-1
1620223848707237,2,1,3,11,24,9,-6,-4
1620223848707237,2,-4,-2,3,1,-6,8,4
1620223848709205,1,-2,-7,-22,-7,-1,2,-6
1620223848709205,1,0,0,-4,2,2,0,3
1620223848722196,3,-3,-11,-17,-6,-5,-1,-3
1620223848722196,-17,-3,7,12,-4,2,11,2
1620223848729218,-8,4,12,12,1,-3,-30,-8
1620223848729218,2,-3,-12,-11,-10,2,3,1
1620223848745619,-6,2,14,11,20,-2,1,6
1620223848745619,8,4,8,0,-15,3,10,1
1620223848747615,6,0,-1,-5,0,-1,-20,3
1620223848747615,-5,-1,-4,-2,-8,-5,5,2
1620223848759988,4,1,-4,14,-2,8,7,1
1620223848759988,0,-4,-6,-2,17,1,-8,-3
1620223848766155,4,2,5,6,3,-4,18,5
1620223848766155,1,-4,-5,-8,-13,-5,-11,-3
1620223848782235,-4,2,3,-11,-19,-19,6,-3
1620223848782235,0,-3,10,13,15,19,10,3
1620223848789230,1,2,3,-10,-13,5,2,-2
1620223848789230,-1,-4,1,11,16,1,-4,0
1620223848805264,-2,1,-6,-9,5,-3,3,-2
1620223848805264,-1,-3,-4,-4,-17,-9,-4,-5
1620223848806264,3,0,1,6,9,2,0,0
1620223848806264,1,1,1,-1,-1,-1,4,0
1620223848819126,-2,0,3,-4,-8,0,-5,-3
1620223848819126,0,1,7,8,15,-4,2,-3
1620223848826799,-1,-1,-5,-15,-30,4,10,2
1620223848826799,-1,-2,-4,2,4,-6,-16,-1
1620223848842227,-1,1,4,-7,1,4,10,-1
1620223848842227,-2,-4,-10,0,-13,-6,2,-2
1620223848849211,1,1,6,-5,6,0,13,0
1620223848849211,-1,0,0,-5,-4,1,-2,0
1620223848865685,-1,-2,1,1,-17,-9,-2,0
1620223848865685,0,1,-4,-6,12,-4,5,-6
1620223848867303,-1,-3,-12,4,1,1,-4,0
1620223848867303,-2,-2,-2,0,1,-3,-3,-4
1620223848880551,-2,0,5,11,9,4,-3,0
1620223848880551,2,0,-6,4,-15,3,13,4
1620223848886538,0,-3,-6,-5,-1,-5,0,-2
1620223848886538,0,-1,0,-1,9,3,3,-1
1620223848901620,-2,-6,-11,-14,-8,1,0,-1
1620223848901620,-2,-2,4,-1,-9,-7,-14,-3
1620223848908604,1,2,1,8,17,4,4,0
1620223848908604,-2,-1,3,5,4,4,2,0
1620223848925686,-3,-4,-8,-5,1,-1,-4,-3
1620223848925686,-3,0,2,-14,-14,-4,-8,-1
1620223848927330,2,0,-6,6,3,4,9,1
1620223848927330,-2,0,8,-2,3,1,7,0
1620223848940004,-1,1,-4,-5,-13,-6,27,0
1620223848940004,0,-4,-7,-1,12,3,-19,-2
1620223848946828,0,-3,0,1,10,2,6,6
1620223848946828,0,2,2,-5,-20,0,-3,-1
1620223848961777,0,-3,1,-2,5,0,1,-4
1620223848961777,0,-2,-1,-4,-9,-1,-3,0
1620223848969127,-2,-2,4,8,6,-6,-6,-2
1620223848969127,-1,-4,-5,-6,1,-1,1,-1
1620223848985283,-2,-1,-8,0,3,4,-15,-1
1620223848985283,0,4,11,10,4,-2,4,0
1620223848987213,-2,-4,-1,3,1,5,-5,-1
1620223848987213,-2,0,9,2,-5,-2,2,-3
1620223848999219,-1,-3,-5,-3,8,-3,-3,0
1620223848999219,-2,-3,-5,-7,-8,-4,-3,-1
1620223849006195,-1,0,3,0,2,4,2,-2
1620223849006195,-2,0,-7,0,-4,0,-5,1
1620223849022450,-1,0,3,-8,-4,-2,-7,1
1620223849022450,-2,-4,-4,12,13,-4,2,-2
1620223849028518,0,1,0,0,4,0,-4,-1
1620223849028518,0,-1,0,4,-10,-3,-3,-2
1620223849044320,2,-1,2,6,7,2,-4,1
1620223849044320,-1,-1,3,-14,-2,0,5,-2
1620223849053242,2,3,0,9,-5,-2,1,2
1620223849053242,-1,-6,-5,-6,13,0,-12,2
1620223849059226,3,5,5,15,-15,-4,25,-5
1620223849059226,2,-1,-3,-6,7,0,-5,3
1620223849066437,-1,-1,-4,-8,-5,4,3,1
1620223849066437,-1,3,3,-8,-1,-5,-8,-1
1620223849082171,-2,-1,-2,-1,-14,-4,-11,-11
1620223849082171,-2,0,-4,14,-3,2,2,11
1620223849089162,-1,-3,-8,-12,10,-5,-2,-2
1620223849089162,-1,-1,3,-28,-10,2,13,1
1620223849113246,-3,2,3,25,3,3,-2,-1
1620223849113246,0,1,2,-37,-5,1,-2,-6
1620223849114243,-3,-6,-3,15,-8,-11,-6,-1
1620223849114243,0,-2,-5,10,-3,-4,9,-1
1620223849119130,0,-2,-5,-16,9,0,-39,-3
1620223849119130,-2,-1,-2,-12,-8,-5,2,-10
1620223849127577,-1,1,1,-15,-25,-2,-1,-2
1620223849127577,0,0,-3,-4,14,0,4,-2
1620223849142260,0,1,4,11,-8,-1,-10,1
1620223849142260,1,-2,-4,20,7,0,0,-3
1620223849149249,-2,-4,-2,-59,-8,1,-2,-9
1620223849149249,-2,-3,-3,18,-8,-7,-8,7
1620223849165671,0,-1,0,-7,4,2,5,3
1620223849165671,0,-2,-2,7,-3,-2,-4,0
1620223849167317,1,1,0,26,9,1,2,4
1620223849167317,-1,0,0,-25,-13,6,1,-3
1620223849179214,-3,2,6,-10,-2,-3,0,1
1620223849179214,-1,-4,5,81,35,-1,0,-3
1620223849188208,-1,-2,-7,-37,-41,-2,-4,-4
1620223849188208,0,-2,0,18,20,-1,1,-3
1620223849202186,0,-3,-5,-8,-12,-1,1,3
1620223849202186,-1,-1,-2,-41,-20,-7,36,11
1620223849209190,0,0,8,5,2,-1,-38,-4
1620223849209190,1,2,1,27,0,-2,-15,-3
1620223849225689,-1,-2,-3,-14,14,1,5,1
1620223849225689,-2,-3,-2,6,0,1,-2,-1
1620223849227326,-2,-3,0,3,7,-2,10,1
1620223849227326,-2,-1,-8,-27,-14,-4,2,-3
1620223849239210,-2,-3,-2,17,4,-4,-9,-4
1620223849239210,-1,-1,0,-14,3,1,-9,-5
1620223849248189,1,4,2,12,7,4,9,1
1620223849248189,1,-1,-1,-11,-10,-3,-3,-5
1620223849262219,-3,-2,-1,6,6,0,3,0
1620223849262219,-2,-1,-3,-14,-7,5,0,1
1620223849269129,-1,-3,-2,6,-1,-2,-4,-1
1620223849269129,-1,1,5,16,12,1,8,1
1620223849285194,-1,-5,-1,1,-9,6,0,-4
1620223849285194,1,2,0,7,1,0,-5,0
1620223849287191,0,-2,-1,-13,-13,0,4,0
1620223849287191,0,-2,0,-4,14,-4,-4,-3
1620223849299187,-2,-2,-2,-11,-2,-8,-6,-2
1620223849299187,-1,-1,-3,4,1,2,27,1
1620223849308135,-2,-2,0,5,-18,4,-9,-8
1620223849308135,1,1,2,3,1,4,2,2
1620223849322069,-2,-2,-1,-5,9,-11,-5,-2
1620223849322069,0,0,0,6,15,5,-7,-4
1620223849330182,2,0,-1,8,31,-1,15,4
1620223849330182,1,2,-2,10,-22,5,-5,3
1620223849345254,-1,-2,-4,-52,-25,-11,0,-3
1620223849345254,-1,-2,-1,3,-4,-3,-10,-4
1620223849347226,-2,-4,-2,5,1,-6,0,-1
1620223849347226,-2,-2,3,9,14,0,-4,-1
1620223849359195,1,0,-4,18,0,1,6,3
1620223849359195,0,1,-1,-38,-15,-1,-7,0
1620223849367357,-4,-1,1,17,-2,-1,-6,-2
1620223849367357,-3,-3,-1,-2,9,0,9,-4
1620223849382211,0,0,-4,-9,-10,2,-3,-2
1620223849382211,2,1,0,27,-9,-3,-7,1
1620223849390035,-4,-3,-4,-18,3,3,4,0
1620223849390035,-3,-3,0,-4,9,-1,5,1
1620223849405209,-1,2,3,8,2,2,-1,1
1620223849405209,-3,-1,-1,2,-2,-1,-10,-2
1620223849407179,1,1,0,2,1,-1,4,0
1620223849407179,0,0,-4,3,-4,-2,-15,-3
1620223849419155,1,-1,0,-4,-14,7,11,3
1620223849419155,-1,-3,0,-13,0,-4,-2,-2
1620223849427555,2,0,6,19,20,0,-6,-2
1620223849427555,-3,-1,-2,2,-8,0,-3,-2
1620223849442190,-3,1,0,18,9,4,2,-1
1620223849442190,-4,-5,0,-19,-6,-5,-6,-10
1620223849449264,-1,2,-2,0,-11,2,5,2
1620223849449264,-2,-1,-1,3,-10,1,3,3
1620223849465699,-2,-2,3,-8,8,-8,-15,-6
1620223849465699,-1,-1,-5,0,2,-2,-6,0
1620223849466699,-5,1,-2,6,6,1,2,4
1620223849466699,5,-4,-3,-13,-11,1,36,4
1620223849479242,-15,-3,0,-5,5,-6,-40,-13
1620223849479242,-7,3,1,-1,-2,-1,-7,3
1620223849487479,-7,-1,-1,7,1,-6,-11,-6
1620223849487479,2,-3,-5,-11,-9,0,10,8
1620223849502289,7,0,-4,0,0,18,16,5
1620223849502289,3,-2,-3,-4,1,-1,0,1
1620223849509269,3,1,5,2,-9,-5,4,-4
1620223849509269,-1,-1,-1,6,0,-9,-13,-8
1620223849524337,4,-1,-3,-3,12,-1,5,3
1620223849524337,-1,-1,-2,-2,-6,1,-3,-2
1620223849531819,1,-4,-4,-3,3,0,3,-7
1620223849531819,-2,4,-1,-12,-8,2,2,4
1620223849539224,-2,-1,0,8,-4,-3,9,2
1620223849539224,2,-2,0,3,0,-3,0,1
1620223849547552,3,-2,-2,-6,-3,-2,-3,3
1620223849547552,-2,0,-2,-5,-2,1,13,-1
1620223849562222,3,-3,1,-2,-7,-1,1,10
1620223849562222,2,3,3,8,14,5,6,2
1620223849569130,2,2,-1,-2,-1,-3,-3,3
1620223849569130,-4,-6,-2,-7,4,-10,-5,-5
1620223849584286,1,0,1,4,-11,-1,5,-2
1620223849584286,1,0,-3,-5,-11,-3,-4,-2
1620223849591809,-4,-3,-2,3,7,1,4,2
1620223849591809,0,0,5,2,4,0,-12,-4
1620223849599160,-2,-1,-2,0,-17,-9,-3,-3
1620223849599160,0,-3,-6,-10,-9,-2,-4,-1
1620223849608112,-2,-4,-3,-6,-2,2,0,0
1620223849608112,1,3,-2,2,4,-2,-8,-1
1620223849622211,-1,-1,0,-1,2,1,-2,-4
1620223849622211,0,-1,4,18,1,-3,3,-2
1620223849636218,1,-2,0,-12,-5,-2,-1,1
1620223849636218,18,-1,0,-5,-6,1,-10,0
1620223849644239,-20,-3,-1,1,8,-4,-2,-4
1620223849644239,-1,-1,0,-1,0,0,2,0
1620223849651194,-1,1,-1,-3,-2,1,-1,1
1620223849651194,-4,-2,-1,8,17,-1,-5,-3
1620223849659268,6,0,-3,-10,-16,-2,0,-4
1620223849659268,-2,1,-1,-1,4,-1,-1,-1
1620223849667602,-4,-1,-2,0,-5,1,-2,-1
1620223849667602,-1,0,2,1,1,-1,-3,-3
1620223849682170,2,0,-1,-8,2,-1,-1,1
1620223849682170,-5,0,-3,-3,-5,0,-1,-1
1620223849689158,1,0,-2,13,16,-4,0,-2
1620223849689158,-4,-1,-3,6,-4,5,-2,1
1620223849704141,-1,-2,-1,-23,-2,-8,0,2
1620223849704141,1,-2,0,-2,-2,0,-2,-3
1620223849711450,-1,-2,-2,-2,-3,0,-8,-3
1620223849711450,-6,-1,-1,6,1,-4,5,-3
1620223849728190,0,0,-1,7,3,6,2,1
1620223849728190,0,1,1,-2,2,-9,6,-2
1620223849729871,1,-3,-2,2,-3,2,-4,-1
1620223849729871,0,5,0,-3,-6,2,11,3
1620223849742262,-9,1,-1,0,4,-2,-31,-10
1620223849742262,-1,-2,-3,0,0,0,23,2
1620223849749353,-1,3,0,-11,-4,2,1,6
1620223849749353,0,-3,4,14,2,-2,-5,-3
1620223849765080,5,-2,-2,-1,-2,-5,7,-2
1620223849765080,-1,-2,0,3,2,4,0,2
1620223849771761,-4,-5,-2,-6,-8,-5,-4,-6
1620223849771761,-2,-2,-2,-15,-5,-2,-8,-2
1620223849788179,3,-1,-1,11,6,3,8,4
1620223849788179,0,1,2,2,3,0,-12,-2
1620223849788991,0,-3,-2,-5,-4,-2,8,-3
1620223849788991,-3,-5,-2,-1,3,-3,-9,-2
1620223849802157,-2,-1,-1,4,2,1,3,1
1620223849802157,2,-2,-1,-4,-2,-3,-6,-4
1620223849809141,0,1,-2,0,-2,-2,-2,0
1620223849809141,-3,1,0,-2,1,1,0,-1
1620223849824270,3,-1,3,0,0,-1,2,0
1620223849824270,-3,-3,-2,-3,-2,-1,-6,-3
1620223849831310,-1,1,-1,5,-4,0,-1,0
1620223849831310,-1,-1,1,-1,0,-1,-2,-1
1620223849848220,2,-2,-2,-3,1,-1,5,-1
1620223849848220,-2,-1,0,-2,-3,2,-6,1
1620223849850215,0,-3,-1,2,1,-1,-1,-1
1620223849850215,-1,1,-2,-4,-1,-3,-2,-2
1620223849862412,1,-1,-3,0,0,-1,-1,-1
1620223849862412,-2,0,-1,1,0,1,-1,-2
1620223849869135,1,-3,0,-1,-2,-1,1,-2
1620223849869135,-11,-10,-4,-4,-3,-2,-2,-1
1620223849884257,-3,5,0,2,0,1,2,3
1620223849884257,-1,0,1,0,1,-1,-2,-1
1620223849891247,-1,0,1,-2,-2,-2,1,-2
1620223849891247,4,1,-5,-3,-2,0,-3,1
1620223849915250,-1,-5,-2,-1,-2,-1,-1,-1
1620223849915250,-5,-2,-1,-3,-2,-3,-3,-3
1620223849917267,0,2,-2,-2,-3,-1,-2,0
1620223849917267,-3,-1,0,0,0,1,-1,0
1620223849922254,-1,-3,-1,0,-2,-5,-2,-2
1620223849922254,0,-1,-2,-2,-1,-2,-5,-2
1620223849929262,0,-1,-2,2,0,3,12,7
1620223849929262,-1,-2,-1,-4,-1,-1,-7,-4
1620223849945202,-3,0,0,-1,-1,-1,-4,-2
1620223849945202,2,-1,-1,0,-1,0,-4,2
1620223849951210,-1,-1,-1,-1,-1,-1,4,-2
1620223849951210,3,-1,0,-2,-1,-2,2,0
1620223849968161,-11,4,0,0,-2,0,3,0
1620223849968161,-2,-1,-3,-1,1,-1,-1,-2
1620223849969135,-1,-1,-1,-1,0,-1,-7,-2
1620223849969135,-2,-1,-2,-1,0,-2,-2,-3
1620223849982208,8,-1,-1,-2,-1,-1,27,7
1620223849982208,1,0,-2,-2,0,-1,-12,3
1620223849989293,-4,-4,1,-1,1,-2,4,1
1620223849989293,-1,2,-3,1,-2,-5,-57,-16
1620223850004321,3,-5,-3,-1,-1,6,21,9
1620223850004321,-3,6,0,-1,-1,-3,6,1
1620223850011302,3,1,-1,-2,-1,-2,-5,-2
1620223850011302,-4,-1,-1,-1,-2,1,8,3
1620223850028152,0,-2,0,0,0,-3,-14,-6
1620223850028152,-2,-5,-2,0,-2,-1,-2,-6
1620223850029842,-1,1,0,2,1,1,-5,-1
1620223850029842,1,-3,-1,-1,0,1,14,0
1620223850042217,-1,-1,1,1,-1,-3,-12,-5
1620223850042217,5,-2,0,-1,-3,1,6,2
1620223850049202,-1,1,1,-1,0,-1,0,-1
1620223850049202,0,-1,-1,-1,-1,0,10,1
1620223850064930,4,1,0,-1,1,-2,-7,0
1620223850064930,-6,-1,-1,1,-1,-1,-5,-1
1620223850070898,20,-4,-3,-2,-2,-1,0,2
1620223850070898,-19,2,-1,-4,-1,-2,5,-3
1620223850088153,-1,1,-1,0,0,0,-2,0
1620223850088153,1,-1,-1,-1,0,-2,-2,0
1620223850089127,-6,-2,-2,-2,-2,-1,-5,-4
1620223850089127,7,-1,-1,2,0,0,6,3
1620223850102295,-1,-2,-1,-1,-2,-1,-2,-2
1620223850102295,-4,-2,-1,-1,-1,0,-1,-2
1620223850109226,-5,-3,-1,1,1,0,2,0
1620223850109226,6,3,0,1,-1,1,0,4
1620223850133257,-3,-3,-1,-1,-1,-2,-6,-4
1620223850133257,1,-3,-1,-2,-2,-1,0,0
1620223850134253,-7,-2,-1,-1,-1,0,1,0
1620223850134253,28,-2,-2,-2,-2,-3,-22,-4
1620223850146388,-31,1,-3,-3,0,-1,23,3
1620223850146388,7,3,1,2,1,1,2,4
1620223850163234,2,7,0,1,-2,-1,-1,0
1620223850163234,-6,-5,-2,-2,-2,-1,0,-1
1620223850164130,11,-1,-2,-2,-1,-2,-1,-3
1620223850164130,-5,-3,-3,-2,-2,-1,-4,-2
1620223850170026,-9,-2,-2,-3,-1,-2,-1,1
1620223850170026,-1,0,0,-1,0,0,13,2
1620223850184263,4,-2,-1,4,-1,0,-11,-2
1620223850184263,-4,0,-2,-10,-1,0,5,-2
1620223850191253,3,-4,-1,17,-2,-3,-7,-5
1620223850191253,-5,1,0,-19,-5,1,6,2
1620223850208176,1,0,2,12,7,1,-7,-3
1620223850208176,0,-4,-4,13,-4,-3,-6,-4
1620223850209201,0,1,0,-2,10,-1,-1,1
1620223850209201,-6,-2,-3,0,-6,-2,2,-1
1620223850221145,9,-5,-1,-7,-2,1,-1,-1
1620223850221145,-4,8,2,-13,-5,-1,2,0
1620223850230891,-17,1,-2,1,7,1,-2,-2
1620223850230891,-4,-1,-2,-6,-23,-3,2,2
1620223850244349,-2,-5,-3,1,12,-4,-7,-6
1620223850244349,-2,-9,3,6,3,0,-1,-1
1620223850251332,-6,-2,-3,-8,3,0,-3,0
1620223850251332,14,10,5,7,3,0,0,-1
1620223850267411,-20,-1,1,0,3,3,1,1
1620223850267411,5,2,-3,10,4,-7,-2,-1
1620223850269308,-7,-7,-4,-18,-19,-7,-1,-3
1620223850269308,-4,-9,-3,5,21,4,2,-3
1620223850281845,5,2,-2,1,-8,-5,-4,-1
1620223850281845,-2,-3,-1,-10,6,5,4,-2
1620223850290145,2,-2,2,-1,-5,0,-3,-3
1620223850290145,2,3,2,-13,-1,-4,0,3
1620223850304164,3,4,2,23,1,3,-1,2
1620223850304164,-4,-9,-9,-30,-20,-7,-3,-6
1620223850311218,15,2,-1,4,1,-2,-2,-2
1620223850311218,-17,-1,-6,7,3,-2,-1,-1
1620223850328225,0,0,3,-4,-10,-1,-2,0
1620223850328225,1,-4,5,11,-5,4,0,-2
1620223850329128,4,4,0,3,14,2,2,3
1620223850329128,-6,-9,-5,3,0,-4,-3,-4
1620223850341843,2,-1,-1,-14,-7,-3,-2,-4
1620223850341843,3,3,-1,6,-1,0,0,2
1620223850350162,-2,-2,-2,-9,-5,3,-2,0
1620223850350162,3,-3,2,6,4,1,2,2
1620223850364315,-10,0,-1,-2,-2,-2,-2,-1
1620223850364315,2,1,-1,-3,-1,1,0,-1
1620223850371130,0,-1,0,16,7,0,-1,-3
1620223850371130,1,3,-2,-31,-11,-2,0,-1
1620223850388224,6,1,-1,8,-5,-2,-3,2
1620223850388224,-4,-8,-1,3,9,0,1,-1
1620223850389193,-8,8,-1,-4,-6,-5,-2,-3
1620223850389193,9,3,1,9,0,-1,-3,-1
1620223850410156,11,-2,-5,-28,-5,2,3,7
1620223850410156,-3,1,3,37,17,1,-1,-3
1620223850412130,1,-6,-5,-14,-10,-10,-4,-3
1620223850412130,-8,-1,0,1,-4,3,0,0
1620223850433249,-12,0,3,21,12,0,-4,-6
1620223850433249,-7,-3,-4,-30,-15,-3,-3,-2
1620223850434221,0,2,-4,4,1,3,2,1
1620223850434221,-7,-1,-1,4,3,1,2,-2
1620223850447208,2,-3,-4,-11,-5,-4,-2,-6
1620223850447208,18,2,-1,-5,-2,-2,-1,0
1620223850454316,-9,-6,0,0,-5,2,1,0
1620223850454316,0,1,1,-2,3,-2,1,-2
1620223850470153,4,-2,0,0,0,-1,-1,-3
1620223850470153,2,2,-2,0,-3,-2,-2,0
1620223850472149,3,-1,1,-10,-6,1,-1,2
1620223850472149,0,-4,0,10,5,-2,-2,-3
1620223850484339,2,0,-1,-3,-1,2,-2,3
1620223850484339,-3,2,-3,-3,4,1,1,2
1620223850491865,-25,-4,0,-1,-7,-3,-1,-1
1620223850491865,-15,-2,-3,2,6,-4,-2,3
1620223850507364,4,0,-1,-7,-11,0,1,2
1620223850507364,8,-2,1,-6,-2,-2,-1,-3
1620223850514146,21,-2,1,7,5,0,0,-1
1620223850514146,11,-1,-2,1,0,0,0,3
1620223850521798,4,1,-2,-6,7,-2,0,-1
1620223850521798,1,0,-2,5,1,-1,1,2
1620223850530173,6,3,-1,-2,0,1,2,1
1620223850530173,-2,-1,1,-3,-2,-1,1,-2
1620223850544311,-1,-3,-2,-2,-4,-3,-2,3
1620223850544311,-1,-4,0,-10,-3,2,-2,10
1620223850551218,-4,-4,1,17,5,-2,-1,0
1620223850551218,-3,6,-1,-3,-6,-3,-3,-7
1620223850567529,-9,0,-2,-1,0,-2,-2,-6
1620223850567529,-12,2,2,0,0,-2,0,-8
1620223850574314,-2,-7,-3,-9,-1,-4,-5,-8
1620223850574314,-4,-4,-3,2,-1,0,-4,-6
1620223850581258,-5,1,1,0,0,0,-3,-4
1620223850581258,-7,-1,0,1,2,-2,-2,-7
1620223850590142,-1,0,-2,-6,-2,-3,-3,-7
1620223850590142,0,1,0,4,-2,2,1,1
1620223850605104,0,0,-1,-4,1,0,0,-2
1620223850605104,-1,-3,-1,-1,-2,-3,-4,-1
1620223850611185,5,3,-1,-1,-2,3,0,2
1620223850611185,3,-1,1,-2,-2,-1,0,3
1620223850627449,0,-5,-1,-2,-1,-1,1,0
1620223850627449,0,-1,0,3,0,-1,-2,3
1620223850634330,2,2,0,-2,-1,1,-1,6
1620223850634330,0,-4,-1,-2,-1,-1,1,2
1620223850650760,-1,-1,-2,0,-2,-3,0,0
1620223850650760,-2,1,-2,1,-2,2,1,4
1620223850651761,0,1,-1,-2,0,0,0,-1
1620223850651761,-1,-3,-3,-3,-2,-2,-4,-2
1620223850665034,-1,0,-1,0,-2,2,-1,0
1620223850665034,-2,2,0,-1,-1,0,0,-2
1620223850670994,-2,-4,0,-3,-1,-2,-3,-4
1620223850670994,0,-2,-2,-1,0,-3,-1,1
1620223850687400,-2,0,-1,1,-1,0,1,-1
1620223850687400,-1,-2,-1,-1,-2,-1,-1,-4
1620223850693413,1,-2,-2,-1,-1,-1,-2,-4
1620223850693413,0,-2,-1,-1,-1,0,0,0
1620223850710273,-1,-3,0,-1,0,-2,-3,-3
1620223850710273,-2,-2,-1,-2,-2,-3,-2,-3
1620223850712269,0,2,0,3,0,0,3,1
1620223850712269,0,1,-1,-1,0,0,-1,-2
1620223850724367,-1,-2,0,-4,0,-4,-1,-3
1620223850724367,-1,0,-1,0,0,0,0,0
1620223850739249,0,-2,-2,0,-2,0,-2,2
1620223850739249,-2,0,-1,-2,-2,0,-1,-3
1620223850747256,0,-2,-1,-1,-1,-2,-2,-1
1620223850747256,0,0,-2,0,-1,0,-2,3
1620223850753461,0,-1,-1,-2,0,0,0,0
1620223850753461,0,-3,-1,-1,-2,-1,-1,-1
1620223850770755,1,0,0,0,-1,3,0,2
1620223850770755,-1,-2,-2,-1,0,0,1,-1
1620223850771755,-2,-3,1,-2,-2,-4,-3,-3
1620223850771755,0,-2,-1,1,-1,0,0,0
1620223850784310,0,0,-1,-1,-3,0,0,2
1620223850784310,-2,-2,-2,-1,-1,-1,-1,-2
1620223850791860,1,-1,-2,0,0,-2,-2,0
1620223850791860,-1,1,-2,-1,-2,1,0,2
1620223850807136,-4,-2,-1,-3,0,-1,-1,-2
1620223850807136,-2,-1,0,0,1,-1,0,-2
1620223850814151,-2,-1,-2,-1,-2,1,0,-1
1620223850814151,-2,0,0,-1,-1,-2,-2,-2
1620223850830260,-2,-2,-3,-1,-2,-3,-2,-3
1620223850830260,1,0,-1,2,-3,1,-1,1
1620223850832196,0,1,-2,-1,0,1,-1,-1
1620223850832196,-3,-1,0,-2,-1,-2,-1,-4
1620223850844271,-1,-2,0,1,1,-2,-2,-2
1620223850844271,0,-1,0,-1,1,1,-1,-1
1620223850851197,-2,-1,-1,-1,-2,-1,-2,-3
1620223850851197,-3,-3,-1,-2,-1,-2,-3,0
1620223850867591,1,1,-2,1,-1,0,-2,-1
1620223850867591,-2,-1,-3,-1,-1,-1,-1,0
1620223850874271,-3,-3,-1,-2,-1,-2,-1,-4
1620223850874271,2,0,-1,0,1,2,-1,2
1620223850890762,-1,0,0,1,-1,1,1,1
1620223850890762,-2,-1,-1,-2,-2,-2,-1,-2
1620223850891762,-1,0,0,0,-1,1,0,-1
1620223850891762,1,0,0,1,-3,-1,1,1
1620223850904171,-1,-2,0,-3,-1,-1,-1,-2
1620223850904171,1,-3,0,-2,0,-1,-2,-3
1620223850911551,0,1,0,-2,-1,-1,-1,1
1620223850911551,1,0,-2,0,-1,1,-1,-3
1620223850927202,-1,-1,0,-3,0,-3,-2,-4
1620223850927202,-2,0,0,0,0,0,0,0
1620223850934273,-1,1,-1,-1,0,-1,1,2
1620223850934273,-3,-4,0,-3,0,-2,-3,-1
1620223850950777,1,-2,-1,0,-3,-2,0,-1
1620223850950777,-1,2,-2,-1,-1,-2,0,1
1620223850951776,-2,-1,-1,-1,-2,-2,0,-2
1620223850951776,0,-2,0,-1,-1,-3,0,-2
1620223850964342,-1,1,-3,0,-1,0,-1,3
1620223850964342,0,1,0,0,0,-2,-1,-1
1620223850971780,-2,-3,0,-2,-2,-2,-3,-3
1620223850971780,0,0,-2,0,-1,0,-1,2
1620223850987234,-2,0,1,0,-2,-1,1,-1
1620223850987234,-2,-4,-1,1,-1,-4,-2,-4
1620223850994321,-1,0,0,0,2,-1,0,1
1620223850994321,-1,-1,-1,1,0,0,2,2
1620223851010770,-2,-1,-2,-2,-1,-1,-2,-1
1620223851010770,0,-2,-2,-1,0,-2,-2,-3
1620223851011770,2,0,0,1,-1,1,1,0
1620223851011770,0,-4,-2,-2,0,0,-1,-2
1620223851025182,0,-2,-1,-1,0,-1,-1,-2
1620223851025182,0,0,-1,1,-2,1,-2,2
1620223851031840,-2,1,0,0,-3,-1,-2,1
1620223851031840,-1,-1,0,-2,-1,-3,-2,-2
1620223851047354,-1,-1,0,-1,0,-2,-2,1
1620223851047354,-1,0,-1,-1,-2,2,2,2
1620223851055143,-1,-3,-2,-3,0,-1,0,-1
1620223851055143,-2,-1,0,-1,0,-3,-2,-2
1620223851070727,1,2,0,0,0,0,1,2
1620223851070727,-2,-3,1,-1,0,-2,-1,-1
1620223851071726,-3,-3,-1,-2,-1,-2,-1,-3
1620223851071726,-2,1,-2,-1,0,0,-1,1
1620223851085122,0,-1,-2,0,-1,1,-1,0
1620223851085122,-2,-2,-1,-2,-1,-2,0,-3
1620223851091879,0,-1,1,-1,0,-1,-1,-1
1620223851091879,-1,-1,-1,0,-2,0,0,1
1620223851106857,0,-1,0,-1,0,-2,-1,-1
1620223851106857,2,-2,-1,-2,0,-2,-2,-2
1620223851113915,2,-2,-2,0,-1,1,0,2
1620223851113915,0,-1,0,-1,-2,-1,-1,-1
1620223851130664,-3,-2,-2,-3,-1,0,-1,-2
1620223851130664,1,1,-1,-2,-2,0,-1,0
1620223851131667,-1,0,0,-3,-1,-2,-1,-1
1620223851131667,-2,-2,-2,-1,-2,0,-1,-4
1620223851143692,0,-1,0,2,-2,-1,-1,-2
1620223851143692,-2,0,-1,0,0,-2,-2,0
1620223851152825,-2,-2,0,0,0,1,-2,-3
1620223851152825,-1,-2,0,-2,1,-2,-2,-2
1620223851167634,0,1,0,-1,0,1,0,1
1620223851167634,-2,0,-2,-2,-1,0,0,-1
1620223851174299,1,-2,-2,-2,-1,-3,-1,-2
1620223851174299,0,-1,-2,-1,-1,-1,0,0
1620223851190306,-2,-1,-2,0,0,0,-1,1
1620223851190306,-1,-3,0,0,-2,-3,-3,-3
1620223851192237,0,-1,-1,0,0,0,0,0
1620223851192237,-1,0,0,0,-1,1,-1,0
1620223851204171,-1,-1,1,-1,-3,-2,-1,-4
1620223851204171,-2,-1,-1,-1,0,-2,-1,-2
1620223851213249,1,1,1,0,-2,0,1,-1
1620223851213249,1,0,0,0,-2,-1,0,-2
1620223851227599,-1,-1,0,0,0,-2,-1,-1
1620223851227599,0,0,0,0,1,1,1,2
1620223851234354,0,0,0,-1,0,-1,0,-1
1620223851234354,-2,-2,-1,-2,0,-1,-1,-3
1620223851250731,-1,-1,-1,0,-2,-1,0,-1
1620223851250731,0,0,-2,-2,-2,1,1,0
1620223851252728,-2,-2,-3,-1,-2,-2,-1,-3
1620223851252728,1,-2,-3,-1,-3,-3,-1,-2
1620223851273267,-1,0,0,-1,0,1,0,1
1620223851273267,0,-2,-1,-2,0,-1,-2,-1
1620223851274246,-2,-2,0,-1,0,-2,-1,-2
1620223851274246,0,1,-1,-2,1,0,0,1
1620223851287588,-2,-1,-1,-1,-2,-1,-1,-1
1620223851287588,-1,0,0,0,-2,-1,-1,-3
1620223851301343,-2,-1,-2,0,-1,0,0,1
1620223851301343,-2,1,-2,-2,-2,-2,0,1
1620223851310804,-2,-2,1,-3,0,-3,-1,-3
1620223851310804,-1,-2,-1,-1,0,-1,0,-1
1620223851311804,1,0,-1,0,-1,2,-1,2
1620223851311804,-1,-2,1,0,0,0,0,0
1620223851324364,0,-3,-1,-2,0,-2,-2,-3
1620223851324364,1,1,0,0,-2,-1,0,1
1620223851333257,-2,2,-2,-1,-1,-1,-1,-1
1620223851333257,0,-2,0,-3,-4,-2,-2,-3
1620223851347488,0,-1,-1,0,0,0,0,1
1620223851347488,-3,1,-1,0,-1,-2,0,0
1620223851353504,1,-3,-1,-1,-1,-3,-1,-2
1620223851353504,-1,0,-1,-1,0,-1,0,-1
1620223851370750,-1,0,-2,1,0,0,0,1
1620223851370750,-1,-1,-3,-3,-3,-1,-1,-2
1620223851371750,-1,-1,-1,-2,-1,-2,-1,-2
1620223851371750,0,0,-1,2,0,1,-1,-2
1620223851384325,0,-2,-1,-2,-2,0,-1,0
1620223851384325,-3,-2,0,-1,0,-4,-2,-4
1620223851393252,1,0,-1,1,0,0,-1,1
1620223851393252,-1,-1,0,0,-1,0,-2,0
1620223851407161,-1,-2,-2,-3,-1,-2,-2,-2
1620223851407161,-2,-3,1,-1,-2,-1,-1,-1
1620223851414182,0,-1,0,-1,0,-1,-1,2
1620223851414182,-1,-1,-1,-2,0,-1,-1,-2
1620223851429264,-1,0,1,-1,-1,-1,-1,-1
1620223851429264,1,0,0,0,-2,0,0,1
1620223851436249,-1,-2,-2,-2,-1,-1,-2,-1
1620223851436249,2,-2,-1,-2,-2,-2,-1,-4
1620223851444339,1,1,-2,0,-1,-1,-1,0
1620223851444339,0,0,0,0,-1,-1,-2,1
1620223851453172,-2,-3,-1,-1,-1,-1,-1,-2
1620223851453172,-1,-1,1,0,0,-1,-2,-1
1620223851467636,-1,2,0,1,0,2,-1,0
1620223851467636,-1,-1,0,-1,0,0,-1,-3
1620223851474387,-2,-2,-3,-2,-3,-1,-2,-2
1620223851474387,-1,-1,-1,-2,-1,1,0,2
1620223851489346,-1,-1,-1,-1,-2,-1,0,-1
1620223851489346,0,-3,0,-1,0,-2,-1,-1
1620223851496961,-3,1,1,1,2,-1,-1,-1
1620223851496961,-2,1,0,0,-3,0,-1,0
1620223851504175,-1,-2,0,-1,-3,-2,-2,-2
1620223851504175,1,-1,-2,-1,0,-2,0,-2
1620223851520717,1,1,-4,-1,-2,0,0,0
1620223851520717,-2,-3,-4,-2,-1,-2,-2,-2
1620223851527514,-2,-1,-1,-1,0,-2,-1,-2
1620223851527514,1,-1,0,0,-1,1,0,1
1620223851534235,-1,-2,-1,1,-2,-1,1,0
1620223851534235,-1,-1,0,-3,0,-3,-1,-1
1620223851550135,0,1,1,0,1,-1,0,1
1620223851550135,0,1,-1,-2,-2,0,0,1
1620223851556343,-1,-2,-1,-1,-2,-2,-2,-2
1620223851556343,2,-2,1,0,1,0,0,-1
1620223851573001,-1,0,-2,0,0,2,0,1
1620223851573001,-2,-1,-1,-1,0,-1,-3,-2
1620223851574025,-1,-1,1,0,-1,-3,-2,-2
1620223851574025,-2,0,0,1,-3,-2,-2,1
1620223851587201,-1,-2,0,-2,-2,0,0,-2
1620223851587201,-2,-3,-1,-2,-3,-2,-1,-2
1620223851594188,0,0,-1,0,1,0,-1,1
1620223851594188,-2,1,-2,0,0,0,0,-1
1620223851610146,-1,-2,-2,-3,-1,-1,-3,-4
1620223851610146,-1,-2,0,0,0,-1,-1,-1
1620223851616134,2,1,-1,0,-2,0,-1,0
1620223851616134,-1,-1,-2,-1,-2,-2,1,-3
1620223851633199,0,-2,-2,0,-1,-3,0,-3
1620223851633199,-2,2,-1,0,-1,1,1,-1
1620223851634199,-3,-1,0,-1,-1,0,-1,-1
1620223851634199,1,-3,1,-4,1,-2,-5,-1
1620223851647213,0,-2,0,-1,0,0,1,1
1620223851647213,-1,-1,-1,-2,0,1,0,1
1620223851654173,-1,-3,0,-3,-3,0,-1,-3
1620223851654173,-1,1,-1,0,-1,0,-1,-2
1620223851670047,-2,1,0,-1,-1,-1,0,0
1620223851670047,-1,-2,-1,0,-1,0,-1,-1
1620223851676944,-1,-1,-2,-1,1,-2,-2,0
1620223851676944,0,1,0,-1,3,0,0,1
1620223851692354,-2,-1,0,3,-6,-1,-2,-1
1620223851692354,0,-4,-5,-8,1,-4,-2,-4
1620223851694324,0,0,0,-1,-4,1,-2,0
1620223851694324,-1,-1,-3,-3,-6,-1,-1,0
1620223851707164,-1,-3,1,6,10,-1,-1,-2
1620223851707164,-1,1,2,-5,-2,-1,-1,0
1620223851714325,0,0,0,3,1,0,0,-1
1620223851714325,0,0,-1,-5,-2,-2,-1,-1
1620223851730156,-1,-2,-1,-2,-4,-5,-1,-1
1620223851730156,0,1,1,4,2,0,0,1
1620223851736319,0,0,-1,0,4,-2,-1,-1
1620223851736319,0,-2,-1,-2,-9,-4,0,-3
1620223851753175,0,0,-2,-2,5,1,-1,0
1620223851753175,1,0,0,0,-3,0,-1,-1
1620223851755151,-2,-1,-3,-3,5,-2,-2,-3
1620223851755151,0,-2,0,2,-4,0,0,0
1620223851767142,-2,1,-2,-4,-2,0,0,-1
1620223851767142,-1,-3,-1,-2,-1,-2,-3,-1
1620223851774151,-1,-1,0,-2,-5,-1,-1,-2
1620223851774151,-1,1,-1,4,3,1,2,1
1620223851789194,-1,-1,-1,-4,-5,-2,-1,-2
1620223851789194,-1,-1,0,1,-1,-2,0,-1
1620223851796204,0,-1,-1,-3,-3,-1,0,2
1620223851796204,-1,-1,-1,0,-5,1,-2,0
1620223851813282,0,-6,-2,2,10,-2,-2,-2
1620223851813282,-1,-1,-1,2,-2,-1,-1,1
1620223851814242,0,-1,-1,-1,0,-1,-1,-1
1620223851814242,-2,0,-1,-6,-1,-2,-3,-3
1620223851827514,-1,-1,-1,-3,-2,-2,-1,-2
1620223851827514,0,0,-1,2,-1,1,-1,0
1620223851833523,1,-1,-3,-3,-5,0,0,-3
1620223851833523,-2,0,-1,-1,5,-1,1,-2
1620223851849483,0,2,0,0,-3,1,-1,-2
1620223851849483,-2,1,-1,0,0,-1,0,-1
1620223851856478,-2,-3,0,-3,-1,-2,-3,-3
1620223851856478,-1,-2,-1,2,-1,1,-1,0
1620223851872999,0,0,-1,0,-3,1,-1,1
1620223851872999,-1,-2,-3,-3,-3,-2,-1,-2
1620223851874000,-1,-1,-1,0,-1,-2,-1,-2
1620223851874000,0,0,0,1,1,0,1,1
1620223851887605,-3,-2,-1,-3,-5,-2,-1,1
1620223851887605,-1,-2,-1,0,2,-1,-1,-1
1620223851893619,-1,0,-1,0,0,0,0,2
1620223851893619,0,-1,0,-2,1,0,0,0
1620223851909281,1,-3,1,-3,-2,-3,-1,-3
1620223851909281,0,0,-1,1,-1,0,-1,1
1620223851916944,0,-1,-2,1,-1,0,0,1
1620223851916944,-2,-2,-1,-1,-1,-2,-2,-2
1620223851933261,-1,0,0,-3,-1,-2,-2,-3
1620223851933261,2,1,-1,-1,0,1,0,-1
1620223851934208,-1,-1,0,-1,-2,-2,-2,-2
1620223851934208,-2,-1,0,-2,1,-1,-3,-3
1620223851947215,1,0,-1,-1,-3,1,0,-2
1620223851947215,-2,0,-2,-2,-1,-1,0,0
1620223851954285,-2,-2,-1,-4,-1,-1,-1,-2
1620223851954285,-1,-1,-1,0,1,0,-3,1
1620223851969299,0,0,-1,-2,0,1,0,1
1620223851969299,-1,0,-2,-3,-3,-3,-1,-3
1620223851976410,-1,-1,0,0,0,-2,-1,-2
1620223851976410,0,-1,-1,0,0,0,1,-1
1620223851993258,-2,0,-2,-2,-1,-2,-1,-2
1620223851993258,0,-3,1,-1,1,-1,-2,-1
1620223851994229,2,0,-1,0,0,0,0,1
1620223851994229,0,-2,-3,1,-2,0,1,0
1620223852007190,-2,-1,-1,-2,-1,-3,-1,-3
1620223852007190,0,-1,0,-1,0,0,1,0
1620223852014216,-1,0,0,-1,-2,-2,1,-1
1620223852014216,-3,-3,0,-1,-1,-3,-1,-4
1620223852030152,-1,-2,-1,0,-2,0,-2,-2
1620223852030152,-3,2,-1,0,-1,2,-1,1
1620223852036890,-1,0,-1,-1,-1,-2,-2,-1
1620223852036890,0,-1,0,-2,-2,-3,-1,-2
1620223852053059,0,-1,-1,1,-1,1,0,3
1620223852053059,-2,-1,0,-2,-1,-2,0,-3
1620223852055072,-2,-3,-1,-2,-2,-2,-1,-4
1620223852055072,-1,2,0,-1,0,0,-1,0
1620223852075788,0,-1,-2,0,-1,1,-1,-1
1620223852075788,1,-3,-2,0,-1,-2,-2,0
1620223852077400,0,-1,1,-1,1,0,0,1
1620223852077400,0,0,-2,0,-1,-1,0,1
1620223852090184,-2,-1,-1,-3,-3,-3,-1,-1
1620223852090184,-1,-2,-1,-2,-1,-2,-1,-2
1620223852096199,-1,0,0,1,-1,0,-2,1
1620223852096199,0,0,-1,-2,-2,0,-1,-1
1620223852113296,-1,-3,0,-2,-1,-2,-2,-2
1620223852113296,-2,-1,0,0,-1,0,0,-2
1620223852114249,0,1,-2,0,-1,1,-2,0
1620223852114249,-3,-1,0,-3,-1,0,-2,-3
1620223852126918,1,-1,-2,0,1,-1,-1,-1
1620223852126918,0,0,-2,-1,-1,2,-1,1
1620223852135229,-2,-1,0,-2,-2,-4,1,0
1620223852135229,-1,-4,-1,0,-2,-2,-2,-3
1620223852150178,1,0,0,0,-2,0,-1,1
1620223852150178,-1,-1,-3,-2,-1,-2,-2,0
1620223852156982,-1,-3,0,-2,-1,-2,-1,-1
1620223852156982,0,0,-1,2,0,0,-1,2
1620223852173004,-1,-1,-2,-1,-1,-1,-1,-1
1620223852173004,-2,-2,-1,-1,0,-2,0,-4
1620223852174920,1,-1,-2,0,1,0,-1,0
1620223852174920,0,1,-3,-2,-2,1,1,0
1620223852186935,-1,0,-1,-1,-1,0,-2,-1
1620223852186935,-1,-2,2,-2,-5,-2,-3,-1
1620223852195197,0,1,0,-1,4,1,1,2
1620223852195197,0,-1,0,1,0,-1,-1,1
1620223852210159,-2,-1,-2,-2,-2,-1,-2,-3
1620223852210159,0,0,-2,-1,0,0,-1,2
1620223852216929,-1,-2,-3,-1,-4,0,0,-1
1620223852216929,-2,-2,0,-2,-2,-5,-2,-2
1620223852233248,0,0,0,-2,1,-2,-1,-1
1620223852233248,-2,0,0,-1,-2,0,1,0
1620223852234218,-1,-1,0,0,-2,-2,-3,-2
1620223852234218,-2,1,-3,-2,0,-1,-2,0
1620223852246896,0,1,-2,1,-2,0,0,1
1620223852246896,-1,-2,-3,0,-1,0,-1,-2
1620223852255878,-2,-2,-2,-3,-2,-2,0,-5
1620223852255878,0,-1,2,1,0,0,0,1
1620223852269838,-1,-2,-1,-2,-1,-1,0,3
1620223852269838,-2,-1,-3,-2,-1,-3,-5,-4
1620223852276957,1,0,0,0,-1,-2,1,1
1620223852276957,0,-1,0,-1,-2,1,0,-2
1620223852293229,-2,-1,-1,-4,-3,-2,-2,-2
1620223852293229,-1,1,0,2,3,-2,0,-2
1620223852294218,0,0,-1,0,-2,1,-2,1
1620223852294218,-1,0,-2,-3,-2,1,0,-3
1620223852306188,-1,-3,-1,0,1,-2,-1,-3
1620223852306188,-1,0,0,-2,-3,1,-4,2
1620223852315139,1,0,-1,-1,-1,0,16,2
1620223852315139,-1,-2,0,-1,-2,-2,-3,-2
1620223852330204,-1,-1,-1,-2,-1,-1,-1,-2
1620223852330204,0,0,0,2,-1,1,0,1
1620223852336957,-2,-1,-3,-2,-1,-1,-4,-2
1620223852336957,0,-3,1,-3,-1,0,0,-1
1620223852352205,0,0,-1,3,-3,0,-1,3
1620223852352205,-2,-2,0,1,3,-1,-7,-3
1620223852359426,-3,-3,0,-2,0,-1,-3,-1
1620223852359426,-1,0,-2,0,-3,0,1,1
1620223852375275,-1,0,-1,1,1,0,-1,-1
1620223852375275,-1,-1,-2,-2,-4,-2,-1,-2
1620223852376649,0,-1,0,-1,-1,-1,-4,-1
1620223852376649,-1,3,-2,1,1,-1,0,-1
1620223852390133,-2,-2,-1,-1,-2,-1,-3,-1
1620223852390133,-1,-2,0,0,-6,-2,3,0
1620223852404196,-2,0,-2,1,9,1,-2,1
1620223852404196,-3,-1,-1,0,-1,-2,1,-2
1620223852412212,-1,-2,1,-1,-1,-3,-1,-4
1620223852412212,-1,1,0,-1,-1,1,1,0
1620223852418500,-1,1,-1,-2,-4,-1,-3,-1
1620223852418500,-1,-4,-2,-5,0,-3,-3,1
1620223852426984,1,0,0,1,2,1,1,-2
1620223852426984,1,-1,-1,-2,1,0,1,1
1620223852441242,-1,-2,0,-2,-4,-3,-2,-2
1620223852441242,-1,-2,0,2,-1,-2,-2,-1
1620223852449245,-1,-2,-1,-1,-3,2,0,1
1620223852449245,-2,-3,-2,-2,1,-3,1,0
1620223852456227,0,-1,0,-2,-4,-2,-3,0
1620223852456227,0,1,-1,2,4,2,-1,0
1620223852472250,-1,1,-1,-3,-5,-1,-3,-1
1620223852472250,-1,-4,-1,1,6,1,-4,-3
1620223852479192,1,-2,0,-1,-3,0,-7,-2
1620223852479192,-3,-2,-1,-1,-2,-2,2,-2
1620223852486251,-2,-2,-3,-2,-1,-2,-3,1
1620223852486251,1,0,1,-2,-2,-1,4,-3
1620223852495225,1,0,0,0,-2,0,-2,0
1620223852495225,-1,-1,0,-2,0,-2,-3,-1
1620223852509185,-2,-3,0,0,2,-2,-1,-3
1620223852509185,-1,1,-2,0,0,-1,-5,-1
1620223852517000,-1,-2,-1,-1,-1,-2,6,3
1620223852517000,0,-1,-2,-3,-3,-3,-3,-3
1620223852532251,1,-2,-1,0,0,0,4,-1
1620223852532251,1,0,0,-1,-2,-1,-1,1
1620223852539448,-4,-1,-2,-4,4,0,-2,-5
1620223852539448,-1,-1,-1,0,-4,-2,-3,0
1620223852555237,-1,2,0,1,-3,-1,1,2
1620223852555237,-1,-2,-2,-2,-1,-2,-1,-2
1620223852557139,-1,-1,-2,-1,-1,-1,-1,-3
1620223852557139,0,0,0,0,2,0,0,0
1620223852569498,-1,0,-1,-3,1,1,1,1
1620223852569498,-2,-3,-1,-2,-2,-1,2,-1
1620223852576999,2,2,-1,1,1,-2,-1,1
1620223852576999,0,-2,-1,1,0,1,1,2
1620223852592242,-1,-2,0,-1,-2,-2,-2,-3
1620223852592242,-2,0,-1,-3,-3,-2,-2,0
1620223852599455,0,1,-1,0,0,0,-1,3
1620223852599455,1,-1,1,0,-2,-2,-1,-2
1620223852615852,-1,-3,-1,-1,-1,-3,-2,-2
1620223852615852,0,1,0,2,0,-2,1,0
1620223852617468,-1,0,-3,1,-4,-2,0,-1
1620223852617468,-3,-3,0,-1,-2,-1,-1,-3
1620223852630202,2,1,1,-1,-1,-1,-2,0
1620223852630202,1,1,0,-3,-3,1,0,1
1620223852636813,-2,-1,-2,-3,-2,-1,0,-1
1620223852636813,0,-2,-3,3,4,-1,-3,-2
1620223852652148,-2,0,-1,0,-1,3,-4,1
1620223852652148,-2,-2,-3,-2,-2,-2,-5,-2
1620223852659487,-2,-2,0,-3,-5,-1,-1,-5
1620223852659487,1,0,-1,-3,-2,1,1,1
1620223852675855,-1,-2,-1,1,1,-1,-2,0
1620223852675855,-1,-3,-2,2,-1,-2,0,-1
1620223852677501,0,-1,-1,-2,-6,0,-1,2
1620223852677501,-1,-2,0,-1,-1,-2,-5,0
1620223852689205,-2,-1,-2,-3,1,0,7,-2
1620223852689205,-1,-1,-1,-1,-1,-2,2,-2
1620223852696948,1,-1,0,1,2,1,0,0
1620223852696948,-3,0,-1,-3,-2,0,-1,-3
1620223852712210,-1,-2,-1,-1,-4,-1,-4,-2
1620223852712210,-1,-1,-1,-2,2,-1,5,-2
1620223852718474,-2,-1,-1,-1,1,-1,-1,0
1620223852718474,0,-2,0,-2,-2,-2,0,-3
1620223852734277,-1,-1,0,1,2,-1,-3,-3
1620223852734277,1,1,1,-3,-3,0,-2,4
1620223852743157,-1,-1,-1,2,3,-1,0,-2
1620223852743157,1,-1,-2,-1,2,-2,1,1
1620223852750137,-1,0,0,1,-1,0,-3,-2
1620223852750137,-1,-2,-1,-1,-1,0,-1,-2
1620223852756122,-1,-4,0,-3,-2,-1,-2,-2
1620223852756122,0,0,0,-2,-1,-1,-1,0
1620223852772446,0,-1,-1,-2,-1,-1,-6,2
1620223852772446,-2,-3,1,-3,-7,-6,-11,-5
1620223852779152,0,0,0,5,7,3,2,0
1620223852779152,-1,0,-2,-1,-2,2,-2,-2
1620223852795739,-1,-4,-1,-3,-2,-2,-3,-2
1620223852795739,0,-2,-1,2,0,-1,3,1
1620223852796743,0,0,0,-2,-1,-1,-3,-3
1620223852796743,-2,-3,1,1,1,-2,-4,-1
1620223852809731,-3,-2,-1,-4,-4,0,9,-2
1620223852809731,1,-1,1,2,0,1,0,1
1620223852816716,-1,-1,-2,-2,-3,-1,-1,0
1620223852816716,-1,-1,0,-3,-3,-1,2,-3
1620223852832644,0,1,-1,1,1,0,0,1
1620223852832644,0,1,-1,-3,2,3,0,0
1620223852838733,-3,-3,-2,3,-2,-3,-2,-1
1620223852838733,0,-1,-1,-2,-3,0,-1,-1
1620223852855214,0,-1,-1,-1,0,0,0,0
1620223852855214,-1,-2,0,-2,-2,-1,-1,-2
1620223852857209,0,-2,-2,-4,-2,-1,-3,-2
1620223852857209,0,1,-1,0,1,1,-1,2
1620223852869301,-2,-2,0,0,0,-2,-1,-2
1620223852869301,-1,-2,-4,-2,-2,-2,2,0
1620223852876437,-1,1,1,0,-1,2,0,1
1620223852876437,-1,0,0,0,-4,0,-3,0
1620223852892247,-1,-3,-1,-3,-6,-4,2,-1
1620223852892247,-1,-1,0,3,8,1,-6,-6
1620223852899415,1,2,-1,1,-3,-1,4,5
1620223852899415,-1,-1,-2,-4,0,-3,-1,-1
1620223852915854,-1,-2,-2,2,0,-2,-5,-1
1620223852915854,-1,0,-1,-3,-2,0,6,-2
1620223852917442,-3,-1,-1,1,0,-1,0,-2
1620223852917442,-3,-1,-1,-2,-3,-2,-1,-3
1620223852930150,2,1,0,0,-2,1,-4,-3
1620223852930150,-1,-1,-3,0,-1,-1,-1,2
1620223852936078,-3,-3,-1,-3,-1,-1,1,-6
1620223852936078,0,1,-1,-1,-3,-1,1,1
1620223852952114,-1,-1,-2,0,0,-1,1,0
1620223852952114,-1,-1,-1,-3,-3,-3,-3,-2
1620223852967070,-1,-2,-1,3,2,-3,-1,-2
1620223852967070,-1,0,-1,0,0,1,-2,1
1620223852975114,-2,-1,0,-2,0,-1,-1,0
1620223852975114,-1,-2,1,-1,0,-1,-1,-1
1620223852977120,-2,-2,-2,-3,-7,-1,-3,1
1620223852977120,-1,-1,-2,4,5,-1,1,-1
1620223852990114,-2,1,-1,-4,-5,-2,-3,-2
1620223852990114,1,0,-2,1,2,0,0,1
1620223852996128,0,1,0,-5,-7,0,-1,-2
1620223852996128,0,-2,0,4,6,-1,-1,-3
1620223853012319,-2,-1,0,-1,1,-1,-1,0
1620223853012319,0,-1,0,2,-3,0,0,1
1620223853019205,-1,-1,-1,-2,-1,0,-3,0
1620223853019205,-1,-2,0,-3,-4,-2,-2,-1
1620223853035245,0,0,-1,2,3,1,-4,0
1620223853035245,-1,-1,-3,-4,-3,-1,1,1
1620223853036631,-2,-4,-2,-3,-4,-4,-10,-3
1620223853036631,1,0,-1,-1,-1,2,11,5
1620223853049486,0,0,-1,2,0,0,1,1
1620223853049486,-2,-2,-1,-2,-1,-2,5,0
1620223853057722,0,1,-2,0,2,-3,-2,1
1620223853057722,-2,0,0,0,-1,0,-6,-3
1620223853072185,-1,-1,-1,-1,-1,-2,3,-2
1620223853072185,-1,-2,0,-3,-13,-2,-3,0
1620223853079454,-1,0,1,3,8,1,1,-1
1620223853079454,-1,0,-1,-3,-8,-1,-2,-1
1620223853095258,-2,-2,-1,-3,0,-1,-2,-3
1620223853095258,-1,0,-2,1,9,-1,-4,-2
1620223853097253,1,0,-1,-3,-1,0,1,0
1620223853097253,-3,-2,-1,-3,0,-2,-1,-3
1620223853109302,-1,-2,0,0,-6,-1,0,0
1620223853109302,-1,1,-4,0,-1,1,-1,0
1620223853118221,-2,-4,0,-1,-2,-1,2,0
1620223853118221,-1,-2,-1,-2,0,-2,-2,-3
1620223853132247,-1,0,-2,1,-1,0,0,0
1620223853132247,0,-1,0,2,2,0,-1,-2
1620223853139540,-1,-1,0,-5,-3,-1,-2,-3
1620223853139540,0,1,1,4,-1,0,-2,-1
1620223853155154,-2,0,0,-1,5,-2,-1,1
1620223853155154,-3,-3,-1,-4,-9,-1,0,-3
1620223853157052,0,-1,0,-3,-3,0,-5,0
1620223853157052,0,0,-1,-4,-1,-2,7,2
1620223853169388,0,-2,-1,0,0,0,1,-2
1620223853169388,0,-2,-1,0,3,-2,-1,-1
1620223853177597,-1,-1,-2,1,-3,0,-2,0
1620223853177597,-1,0,-1,-3,-1,-1,-6,-3
1620223853192227,-2,-2,0,-1,0,-3,-7,-6
1620223853192227,2,0,0,0,0,0,4,4
1620223853199211,-1,1,-1,-1,2,1,5,1
1620223853199211,-3,-3,-1,0,-1,-4,-8,-1
1620223853215675,0,-1,0,1,1,-2,-2,-2
1620223853215675,0,1,-1,-4,-8,0,-3,0
1620223853216690,-1,-2,-2,-1,2,-2,-2,-3
1620223853216690,1,-2,-3,-1,-1,-1,0,-1
1620223853229471,1,-3,-2,1,1,0,1,1
1620223853229471,-2,1,0,1,1,0,-1,-1
1620223853245233,-1,0,-1,-1,2,-1,-2,-1
1620223853245233,-1,0,0,-5,-9,-1,1,-1
1620223853252231,0,0,-1,4,4,2,0,2
1620223853252231,-1,-3,0,0,0,-4,-3,-3
1620223853259507,0,0,-1,4,7,-2,-1,-1
1620223853259507,-2,-1,-2,-5,-11,0,-1,1
1620223853275884,-2,1,-1,-5,-3,-1,0,1
1620223853275884,-1,-3,0,-1,3,1,-1,-3
1620223853277503,0,0,1,2,-3,0,0,0
1620223853277503,-1,0,-1,0,0,0,-2,-1
1620223853289483,-2,-3,0,-1,3,-1,-5,-1
1620223853289483,0,0,-1,5,2,-1,16,0
1620223853297684,0,-2,-2,-5,-9,-1,-1,0
1620223853297684,-2,-1,-2,-1,7,-2,0,0
1620223853313522,1,0,0,-3,-6,-1,-5,-2
1620223853313522,-3,1,0,0,-1,-2,8,0
1620223853319411,-2,-1,0,-1,0,-1,-7,-10
1620223853319411,2,-2,0,-2,-1,-1,4,6
1620223853334338,1,0,0,4,-3,0,4,0
1620223853334338,0,0,-1,-1,4,-1,-7,0
1620223853341977,-1,-2,-1,-2,-2,-2,4,0
1620223853341977,-1,-2,1,0,0,-1,-11,-4
1620223853357224,-1,0,-2,-4,-2,-3,1,-1
1620223853357224,0,-1,0,-2,-6,-1,-6,-2
1620223853358224,-1,-1,1,-3,-1,-3,1,2
1620223853358224,-1,0,0,2,1,1,0,-1
1620223853373208,-2,-2,-3,2,1,-1,18,6
1620223853373208,-2,-2,-2,-5,-6,-4,-35,-9
1620223853379509,1,0,-3,1,4,1,-3,1
1620223853379509,-1,-2,0,1,-5,-1,2,-1
1620223853394291,-2,-3,-1,-2,2,-3,-3,-4
1620223853394291,0,0,-3,-1,-1,0,6,2
1620223853401275,0,0,-2,1,-2,0,13,4
1620223853401275,-1,-2,-2,1,-1,-1,-7,-3
1620223853417284,0,-1,0,-1,1,0,-7,-2
1620223853417284,-2,1,0,-1,-1,3,10,1
1620223853418279,-1,-2,-2,-6,-2,-2,-6,-2
1620223853418279,-2,-3,-3,0,0,-1,2,-4
1620223853433201,0,1,1,2,8,1,-4,0
1620223853433201,0,0,0,-4,-13,-2,-4,0
1620223853439397,-2,-3,-2,0,1,-1,-2,-3
1620223853439397,-2,2,0,-3,-4,-2,-7,-7
1620223853454382,-1,1,0,-3,-3,1,6,6
1620223853454382,-1,-2,0,-1,-2,-2,-1,-1
1620223853461389,1,-1,0,0,0,1,-1,0
1620223853461389,-1,-1,-2,4,6,1,0,1
1620223853477665,-2,-1,-2,0,-2,-3,0,-1
1620223853477665,-2,-1,-2,-3,3,-3,-9,-3
1620223853477665,1,1,0,3,-2,1,-4,-1
1620223853477665,1,1,-1,-5,-1,-1,25,9
1620223853493232,-3,-3,0,-7,-8,-5,-35,-10
1620223853493232,-1,-1,0,0,7,1,4,2
1620223853499222,-1,-1,0,1,-4,-3,-8,-2
1620223853499222,-3,-2,-2,-6,-2,2,18,-2
1620223853514180,0,0,-2,1,0,1,7,0
1620223853514180,-1,0,-1,0,-1,1,3,2
1620223853521977,-1,-1,-2,-1,-3,-3,-6,-1
1620223853521977,0,-1,1,1,-2,-3,-8,-2
1620223853537653,1,1,0,-3,-5,1,5,1
1620223853537653,1,-3,-2,2,3,-2,2,-1
1620223853537653,-1,-1,-2,-4,-4,-1,5,-2
1620223853537653,0,1,-1,3,6,-1,-6,1
1620223853553558,-2,0,-1,0,-2,1,1,-1
1620223853553558,-2,-2,-1,-3,-4,-3,-5,-4
1620223853558544,-1,-1,3,3,-1,-1,8,7
1620223853558544,-1,0,-2,-4,0,-2,-7,2
1620223853574501,1,-4,0,-3,-3,-3,0,-1
1620223853574501,0,-3,-2,-5,0,0,5,0
1620223853581302,0,-1,1,5,3,0,0,-2
1620223853581302,0,2,-2,-2,-2,0,-5,-1
1620223853597191,-3,0,-1,0,1,-2,3,0
1620223853597191,-1,1,1,2,1,-1,2,0
1620223853598190,-2,0,-1,-3,-2,-2,-12,-5
1620223853598190,-3,-4,-1,-3,-1,-3,3,-2
1620223853613123,0,-1,-1,-1,-3,-1,-1,0
1620223853613123,1,0,0,-1,-2,0,1,2
1620223853619107,-1,-1,-2,-2,2,0,3,-1
1620223853619107,-1,-2,-1,3,1,0,13,0
1620223853634296,1,0,-1,-5,-3,1,1,0
1620223853634296,-2,-2,-2,6,4,-1,0,-2
1620223853641989,0,-3,-3,-4,-3,-2,-4,0
1620223853641989,0,0,-3,1,3,0,-5,-10
1620223853657657,0,1,-1,-3,-4,0,1,-2
1620223853657657,-2,-2,-1,-5,-4,-3,-6,-3
1620223853657657,0,0,1,3,2,1,6,0
1620223853657657,1,-1,-2,-3,-4,-1,-9,-1
1620223853673232,-3,-2,-2,2,-1,-1,-3,-3
