timestamp,emg1,emg2,emg3,emg4,emg5,emg6,emg7,emg8
1622149979013486,-16,7,13,1,3,5,-22,0
1622149979013486,1,2,-12,0,18,-16,19,-9
1622149979014421,-1,1,6,-2,43,17,-19,-16
1622149979014421,16,-4,-5,-5,-69,1,37,18
1622149979028503,-5,-6,-4,1,49,-14,-32,-9
1622149979028503,-1,13,3,2,-24,-5,2,10
1622149979035492,0,-11,3,-1,27,20,7,-7
1622149979035492,-5,-8,-5,-2,-19,-51,-20,-4
1622149979059424,16,22,6,1,0,32,25,10
1622149979059424,-10,-3,1,-2,-28,-10,-11,-22
1622149979060422,6,-16,-8,9,26,14,-10,14
1622149979060422,-1,11,-7,-7,7,-3,-8,6
1622149979073567,-5,-7,0,-4,-28,-4,23,2
1622149979073567,2,-2,3,2,13,14,3,-6
1622149979073791,1,3,2,9,4,-14,-11,6
1622149979073791,-8,-10,2,0,-10,24,14,-6
1622149979089451,-4,-1,-12,-6,-13,-29,-14,0
1622149979089451,-2,-4,5,-4,7,9,8,5
1622149979094995,3,-3,0,-2,-10,-5,13,5
1622149979094995,0,1,3,12,19,-19,-6,10
1622149979111952,13,1,0,-4,-22,11,6,-20
1622149979111952,-26,-18,-22,-13,1,6,-21,11
1622149979117797,0,-4,11,-2,11,-2,20,4
1622149979117797,12,39,6,5,-10,3,-25,-2
1622149979133356,4,2,-4,2,11,23,18,5
1622149979133356,-1,-16,-1,6,16,-10,3,0
1622149979133356,-4,8,-6,-6,-43,-16,-23,-1
1622149979133356,-8,-9,-5,-12,3,5,-4,-27
1622149979149364,2,-5,1,8,-1,7,2,-5
1622149979149364,7,2,-7,-1,-13,-18,-17,6
1622149979155381,-11,-10,5,-2,11,6,11,-3
1622149979155381,-5,-4,3,3,17,10,-28,-10
1622149979171050,14,8,-5,0,-4,3,13,-19
1622149979171050,-16,-10,0,-8,-19,-3,12,0
1622149979177935,18,-3,-6,3,7,5,-9,-1
1622149979177935,-15,2,-1,-1,-11,-19,-7,3
1622149979192932,-6,-17,-4,-5,2,-3,5,3
1622149979192932,4,-16,6,-3,-5,2,-23,-9
1622149979199383,6,44,7,0,14,1,8,4
1622149979199383,4,-5,-5,2,14,15,43,24
1622149979215882,4,5,3,-4,-5,-19,-15,-8
1622149979215882,0,-1,2,2,-23,-7,-12,-6
1622149979215882,-15,-13,-2,-2,-1,-4,-1,0
1622149979215882,-1,-8,1,5,11,1,-4,-3
1622149979231862,-1,-1,-6,-2,20,24,40,20
1622149979231862,7,10,5,-4,-14,-42,-42,6
1622149979237872,-2,-4,-7,-1,3,9,9,-16
1622149979237872,1,-3,8,6,6,-6,-6,1
1622149979251995,-11,-3,-4,-7,-13,-1,-15,4
1622149979251995,-1,0,-3,2,46,16,3,2
1622149979260144,-4,-5,-3,-6,-69,-16,17,-8
1622149979260144,0,-13,-5,-7,-9,-9,-18,4
1622149979276022,0,20,-1,-2,-30,-20,-12,-5
1622149979276022,2,-8,-6,3,23,22,7,4
1622149979276022,5,8,7,-4,13,-10,-7,-4
1622149979276022,-7,-6,2,0,-8,10,11,-13
1622149979291895,5,-2,1,2,12,-20,-10,-4
1622149979291895,-4,1,-4,1,-3,4,-18,-2
1622149979297919,-9,-17,-6,-4,-4,16,15,4
1622149979297919,16,19,4,0,21,-3,20,15
1622149979312911,-1,-3,-2,-6,-54,-10,-5,3
1622149979312911,4,0,3,-3,-7,-5,0,-3
1622149979319607,-9,-1,-4,5,3,-1,4,-2
1622149979319607,-2,0,1,0,-8,-12,-24,-23
1622149979335368,6,-14,-2,4,41,26,6,14
1622149979335368,-5,7,-4,-3,-9,13,15,3
1622149979336365,-7,4,0,-1,8,-21,-24,-22
1622149979336365,-3,-3,-8,-7,-4,5,19,17
1622149979351321,-3,-8,-2,-1,-23,-12,-21,-9
1622149979351321,3,7,6,8,-5,-3,16,-5
1622149979357428,-1,-21,-6,-5,12,4,-16,7
1622149979357428,-6,5,0,1,10,-2,7,0
1622149979372854,10,12,2,2,11,-4,-9,-11
1622149979372854,-9,-2,3,-6,-12,-7,3,2
1622149979379802,-6,-1,-1,2,28,22,24,8
1622149979379802,5,0,-8,-9,-41,-17,-44,-36
1622149979395789,-4,3,-1,3,3,0,-1,4
1622149979395789,0,-22,2,4,21,11,2,-3
1622149979396763,3,18,-4,-8,-15,-24,-2,2
1622149979396763,2,-3,-1,-1,-18,-8,-19,5
1622149979411721,-8,-1,2,-1,38,19,22,2
1622149979411721,4,-8,-1,-3,0,6,17,-2
1622149979417780,-4,-8,-3,0,10,9,-16,7
1622149979417780,-4,0,1,2,-51,-39,-3,5
1622149979432841,-5,-5,-2,-1,-1,-12,1,-2
1622149979432841,0,10,-2,3,15,1,12,-4
1622149979439846,14,-1,-2,-1,-17,-8,-13,5
1622149979439846,15,4,0,5,51,11,11,16
1622149979456049,-10,-14,-5,-5,-42,-5,-13,-6
1622149979456049,-3,4,-6,0,-12,-32,12,13
1622149979456049,3,-12,9,5,18,1,14,-4
1622149979456049,1,23,2,-8,-61,-8,2,12
1622149979471098,6,0,2,6,58,11,-5,-1
1622149979471098,6,3,-4,-5,-49,-5,14,7
1622149979477940,5,-7,-1,-3,19,22,-22,0
1622149979477940,-31,-22,-2,3,4,-1,5,19
1622149979493816,3,9,2,1,-8,15,17,-10
1622149979493816,-6,9,-5,-2,-12,0,10,-10
1622149979499990,-1,10,-3,4,19,-19,-29,-14
1622149979499990,1,-21,-5,-4,-10,19,0,7
1622149979515894,-1,19,1,2,8,-9,2,-1
1622149979515894,5,-4,1,3,15,24,-21,-5
1622149979515894,-5,-7,0,-7,-15,1,50,14
1622149979515894,5,6,-5,-5,2,-19,-16,-16
1622149979531871,-10,-14,-9,-6,-4,-5,-11,6
1622149979531871,-13,-2,12,2,-5,4,-27,-15
1622149979537855,5,18,-11,1,-10,-1,18,15
1622149979537855,-4,-6,7,0,52,1,-18,-22
1622149979552795,4,-2,4,-2,-12,0,2,-1
1622149979552795,15,3,-7,2,25,0,-13,7
1622149979559872,-24,-14,0,-2,0,-13,-5,-5
1622149979559872,1,1,-9,4,16,38,28,-19
1622149979575808,2,16,7,0,-4,-1,-9,28
1622149979575808,2,16,5,-1,-21,-3,30,4
1622149979576811,-2,-17,-2,3,-1,-5,-15,-6
1622149979576811,-6,16,5,-5,8,11,-25,-14
1622149979591773,-16,-30,-7,-4,5,-5,11,-16
1622149979591773,22,21,-1,2,-19,3,-10,-3
1622149979597757,-6,-9,1,1,-23,-18,-22,-8
1622149979597757,3,13,0,6,3,10,18,8
1622149979612748,-4,2,0,-13,-37,-14,-44,-2
1622149979612748,-8,-23,-2,0,-2,-13,18,7
1622149979619703,-3,18,0,-4,26,-1,0,-5
1622149979619703,14,-16,-5,1,-8,6,11,3
1622149979635711,-21,-14,4,3,25,-7,23,12
1622149979635711,-2,16,1,-4,-9,-19,-41,-28
1622149979636730,-2,-1,2,5,-2,24,8,0
1622149979636730,7,-5,0,3,-17,-5,12,6
1622149979651664,8,2,-10,-2,11,9,9,-11
1622149979651664,-4,-19,-9,-10,-3,-14,-3,-1
1622149979657647,10,-19,2,5,-27,-6,-16,-2
1622149979657647,-7,33,2,-4,-27,-14,3,1
1622149979672657,15,13,2,8,40,-12,-36,-6
1622149979672657,-9,-6,-2,-6,-36,4,44,12
1622149979679824,0,2,-4,2,4,18,-2,-5
1622149979679824,-13,-17,-6,-2,-3,-21,-14,0
1622149979695815,-1,-2,0,-2,-5,8,-2,-29
1622149979695815,0,-1,0,-4,-14,10,0,12
1622149979696784,0,3,-6,-4,3,-32,5,5
1622149979696784,5,-14,3,-2,2,12,5,-27
1622149979711039,-17,-12,-6,1,15,14,7,10
1622149979711039,-3,17,6,-1,6,-11,-37,14
1622149979717800,5,7,-4,0,-4,10,28,4
1622149979717800,-5,-25,-4,-11,31,-26,-6,8
1622149979732846,16,16,-5,0,-8,-7,-12,0
1622149979732846,-14,-12,-5,1,-18,12,44,12
1622149979739841,-2,6,6,5,12,9,10,-8
1622149979739841,-1,-7,-5,-9,-20,-6,-16,10
1622149979755785,6,-3,2,3,0,-5,33,6
1622149979755785,-5,3,-2,0,23,5,-51,-18
1622149979756776,0,2,-2,-4,7,5,19,-2
1622149979756776,-7,-8,-4,6,40,2,-11,0
1622149979771716,3,-10,-3,-3,-11,-8,-3,-3
1622149979771716,1,11,10,0,-40,-4,8,-2
1622149979777906,-2,-12,-5,2,42,13,-8,-5
1622149979777906,23,8,-12,-6,-44,-8,-12,0
1622149979792891,-13,-14,3,-8,2,19,16,-4
1622149979792891,-16,-10,3,8,32,8,-1,-22
1622149979799818,2,20,3,-2,-20,-17,14,42
1622149979799818,-8,-14,1,5,-2,15,3,2
1622149979815842,1,5,0,2,11,15,5,-6
1622149979815842,6,0,-9,0,-11,-38,-29,-10
1622149979816839,-2,-11,-4,-14,-38,7,-13,-5
1622149979816839,-4,8,7,8,35,17,17,9
1622149979831073,2,6,1,2,-26,-31,-38,-15
1622149979831073,1,-7,-3,1,57,12,21,11
1622149979837038,-10,-7,-5,-4,-29,3,-14,-7
1622149979837038,-6,-3,-2,-7,-5,-10,3,2
1622149979852050,-8,4,-3,4,12,-27,-16,-4
1622149979852050,-5,4,-1,1,23,3,9,11
1622149979860082,5,-8,-1,3,27,-19,18,7
1622149979860082,-7,6,-2,-6,-32,0,-9,-11
1622149979875895,3,-9,-2,-2,-4,12,13,-1
1622149979875895,3,-2,-8,-2,-1,-4,-2,14
1622149979876914,-12,10,5,1,0,13,11,1
1622149979876914,-13,-13,8,0,12,-22,-23,-5
1622149979891938,15,25,1,-2,-11,15,2,9
1622149979891938,-2,-13,-5,-8,18,-24,-9,-14
1622149979897905,10,-2,-2,3,2,-5,5,-6
1622149979897905,1,15,0,-4,-9,23,16,-4
1622149979912933,0,-16,3,1,-11,1,-18,9
1622149979912933,-9,22,2,-7,-18,12,-7,-46
1622149979919893,1,8,3,4,16,-5,8,-10
1622149979919893,3,-12,1,6,16,-13,-23,6
1622149979935346,-2,11,2,-5,-36,-11,-1,3
1622149979935346,11,-11,-3,-3,3,28,37,11
1622149979936320,-12,-19,-5,-5,-9,-15,-31,-14
1622149979936320,18,30,-2,6,28,4,-7,-1
1622149979951360,-14,16,3,4,9,17,-4,-21
1622149979951360,-3,-16,-5,0,6,-7,-6,20
1622149979957957,3,4,-2,-3,-10,-3,-8,-12
1622149979957957,-10,-7,1,-9,-11,-1,8,-4
1622149979972848,5,-7,2,-1,-18,4,-26,-25
1622149979972848,3,5,7,-5,-15,-16,-3,-1
1622149979979857,-2,-2,-3,0,30,-6,-7,8
1622149979979857,6,-10,-8,-2,-16,11,18,2
1622149979996020,-2,13,1,-4,4,-13,13,0
1622149979996020,-1,19,5,7,-31,11,-4,3
1622149979996020,5,-18,-8,-10,-30,-16,-13,-1
1622149979996020,4,20,11,4,14,-3,14,9
1622149980011829,-6,-24,-14,-7,2,-13,19,6
1622149980011829,11,-12,2,2,0,11,-17,0
1622149980017838,-4,24,7,5,-13,12,29,18
1622149980017838,-1,-10,-3,8,17,13,-15,-15
1622149980032775,26,-26,-2,-12,-19,-13,0,16
1622149980032775,-32,12,-6,-1,-7,1,-1,-4
1622149980047733,10,7,2,0,-3,-1,-24,-3
1622149980047733,-10,-28,-5,-6,-19,42,27,1
1622149980055713,0,33,4,7,16,-16,-14,18
1622149980055713,18,17,-4,-3,4,-2,12,-2
1622149980056740,-1,-4,4,4,8,-6,-27,-3
1622149980056740,-18,2,1,-1,7,-14,50,-8
1622149980070928,0,-18,-5,-5,-17,13,8,7
1622149980070928,-1,-15,-1,9,22,-6,-19,-10
1622149980077910,-7,0,-8,-11,-9,9,15,-2
1622149980077910,-1,13,-3,2,4,-25,-26,-27
1622149980092869,3,-30,1,0,26,10,-3,12
1622149980092869,-13,6,1,-2,-16,-12,17,1
1622149980099851,-9,-10,3,4,-1,26,18,29
1622149980099851,15,19,4,2,6,-21,-11,-6
1622149980114810,8,1,1,3,14,-6,-1,-8
1622149980114810,1,-16,-6,-10,-10,6,-4,1
1622149980122789,7,9,-1,0,17,25,-10,-5
1622149980122789,1,-22,-1,1,-60,0,17,17
1622149980131765,-19,6,0,3,21,-11,-3,-10
1622149980131765,10,1,-1,1,15,12,-8,7
1622149980137749,-8,-14,0,-4,0,-21,5,-22
1622149980137749,-6,3,3,0,9,-21,-27,27
1622149980152709,9,12,-9,2,-25,24,18,39
1622149980152709,-1,-12,9,-3,-9,-29,16,-7
1622149980159719,-8,3,-2,-2,11,-24,-4,-10
1622149980159719,-5,3,-3,-3,-14,-16,-26,-4
1622149980176671,-8,-17,-8,3,-7,26,14,8
1622149980176671,0,-11,-9,-15,-19,-13,13,5
1622149980181967,-1,34,6,9,6,16,-8,-10
1622149980181967,2,-12,7,2,12,-4,11,4
1622149980190967,-5,18,-3,-6,12,-20,-51,-22
1622149980190967,4,-11,-5,-2,1,-1,23,0
1622149980196951,0,-24,-2,4,11,29,-13,-26
1622149980196951,-5,23,-5,-11,-9,-3,-30,-22
1622149980212913,-3,-6,3,3,-1,-1,16,-13
1622149980212913,-5,7,1,2,13,-2,-18,4
1622149980219891,13,-14,-2,-3,-12,17,17,15
1622149980219891,-4,6,-9,4,-13,36,33,-8
1622149980234850,2,-3,10,-6,14,-18,-31,-6
1622149980234850,0,-12,-4,2,1,-8,-3,3
1622149980242882,-7,4,0,-12,-55,1,25,0
1622149980242882,24,-5,-5,1,45,-20,-20,16
1622149980251867,-20,9,3,6,-4,-1,7,-42
1622149980251867,-4,-5,-1,-2,-18,26,6,7
1622149980257818,8,-7,0,3,16,-43,-16,4
1622149980257818,-13,-21,-2,-5,11,22,-3,32
1622149980272778,11,3,-2,1,-35,7,12,2
1622149980272778,0,14,4,-1,16,-5,-34,-7
1622149980279785,-6,-2,-4,-2,11,12,8,-2
1622149980279785,8,-6,2,-2,-44,-17,33,-1
1622149980294719,-4,-12,-6,0,-18,-17,-8,-2
1622149980294719,-3,-19,-1,5,17,13,-17,14
1622149980302698,6,40,4,-1,-3,-14,-57,-54
1622149980302698,-8,-7,-4,2,8,2,-23,-12
1622149980318536,-8,-16,1,2,5,21,20,0
1622149980318536,13,-1,-2,2,-14,-5,9,-34
1622149980319273,-2,-7,-9,-9,14,-8,11,43
1622149980319273,0,-3,-5,-7,-7,-3,-4,-11
1622149980332817,-22,5,10,10,14,5,5,1
1622149980332817,12,10,8,-2,3,-8,1,-3
1622149980339799,-6,-12,-4,1,14,-2,3,0
1622149980339799,5,5,-1,-1,-45,10,-2,-3
1622149980354756,5,-13,-5,-12,-11,2,32,-14
1622149980354756,-20,-4,-3,4,19,5,-36,-2
1622149980362759,20,14,0,-2,11,-4,-12,5
1622149980362759,3,1,-7,4,3,0,30,2
1622149980377989,-6,-4,1,-3,10,-44,-24,-3
1622149980377989,0,-2,-4,-2,49,33,17,3
1622149980378990,-9,-3,2,-6,-50,-3,0,4
1622149980378990,-4,-11,-5,-3,-11,17,27,8
1622149980394029,6,16,2,3,6,13,-10,-9
1622149980394029,0,-12,0,5,7,-17,-4,3
1622149980400051,9,3,-3,-2,-18,-11,2,14
1622149980400051,-17,-1,6,5,6,-6,-15,-11
1622149980415325,0,-2,-10,-6,-8,-2,32,17
1622149980415325,16,2,3,0,-24,-27,-40,-27
1622149980422804,-16,-17,-2,-4,-7,5,25,7
1622149980422804,-4,-2,2,2,1,-21,0,1
1622149980437849,5,13,0,3,6,-7,-51,-8
1622149980437849,11,21,1,-2,16,-9,34,27
1622149980438812,-6,-11,-6,-4,-36,-3,-2,8
1622149980438812,-4,-11,-3,-2,24,9,-1,-4
1622149980453796,1,-7,0,-4,-3,-7,-16,3
1622149980453796,1,-9,-4,3,1,5,8,9
1622149980459779,2,22,7,5,16,10,13,-19
1622149980459779,1,-3,-4,-15,11,-5,-4,20
1622149980474618,4,5,3,6,13,8,-5,3
1622149980474618,1,15,1,-6,-57,7,-12,-7
1622149980482331,-5,-29,-3,3,3,-12,2,-4
1622149980482331,-14,14,-6,2,31,1,-19,-19
1622149980498407,2,-2,3,-4,1,10,25,3
1622149980498407,1,-2,-6,1,11,-4,-18,5
1622149980499408,15,6,8,-4,28,8,-18,-6
1622149980499408,3,2,1,-5,-39,3,4,-19
1622149980514442,0,-10,-6,-5,10,24,26,27
1622149980514442,-8,-7,-6,0,-13,-30,-10,-27
1622149980519836,-1,0,-3,-2,-45,3,-4,4
1622149980519836,8,-2,5,8,36,16,-6,-2
1622149980535350,-3,5,-8,-7,-12,-10,-4,0
1622149980535350,-1,-7,0,0,10,10,25,-12
1622149980542306,8,3,-6,7,-8,4,-3,21
1622149980542306,-10,-9,8,-8,-17,-6,-24,-20
1622149980558396,2,-2,-6,-4,5,11,21,1
1622149980558396,-5,10,-1,-1,-12,-19,2,3
1622149980559414,-1,-11,-4,-1,6,-16,-5,-13
1622149980559414,-6,3,-2,3,12,27,-19,-2
1622149980573717,3,1,3,-5,-14,-33,16,25
1622149980573717,9,-4,1,-4,-9,20,-19,-13
1622149980580085,-18,-4,-6,5,11,-19,2,3
1622149980580085,0,-15,2,-8,-12,7,12,6
1622149980595045,1,11,2,6,8,1,-2,-10
1622149980595045,-7,-5,0,-8,-19,3,-4,9
1622149980602275,0,-8,-2,-1,6,-8,2,-3
1622149980602275,-6,-1,-5,2,-20,-18,-12,-5
1622149980618618,-17,-8,2,-6,3,21,4,-10
1622149980618618,2,-2,-1,-2,11,-4,6,19
1622149980618618,-2,7,-1,-3,-16,0,-16,-12
1622149980618618,9,-2,0,4,-2,-18,3,7
1622149980633872,2,4,1,2,6,11,20,3
1622149980633872,-10,-2,0,1,18,-3,1,14
1622149980639871,2,-14,-5,-7,-28,0,-4,-12
1622149980639871,2,15,4,4,17,7,31,10
1622149980656124,4,4,0,2,-9,-15,-37,-12
1622149980656124,-4,-17,3,-1,-17,14,33,-1
1622149980662782,-9,14,-3,2,34,-1,9,-7
1622149980662782,4,2,1,-3,7,7,-24,7
1622149980677887,9,-15,-5,2,-8,-11,4,-1
1622149980677887,-6,33,0,-5,-13,-22,5,-10
1622149980678925,-1,-7,7,3,13,6,-30,-26
1622149980678925,-13,-3,-3,-5,-36,1,-3,-4
1622149980694325,2,7,-4,-3,12,2,-6,1
1622149980694325,-1,-23,-8,-6,-8,-12,7,-2
1622149980700291,4,1,-7,-1,-20,1,19,3
1622149980700291,3,10,11,-2,50,-20,-21,3
1622149980723428,2,-1,-5,-4,-23,0,-14,-7
1622149980723428,-6,-6,6,11,27,-4,-19,-3
1622149980723428,19,7,-1,-2,-7,16,35,8
1622149980723428,-8,-23,-9,-4,-19,3,-29,-15
1622149980737836,-8,-16,1,5,24,12,27,-4
1622149980737836,8,20,-1,-1,-4,-24,1,14
1622149980738807,-12,16,4,1,-7,15,-4,-13
1622149980738807,16,3,-5,-2,-21,-13,-7,-2
1622149980761823,-2,-4,2,0,35,4,-4,23
1622149980761823,0,-10,-3,-3,-32,22,0,-10
1622149980762782,-1,15,-2,-1,37,-18,-25,8
1622149980762782,-3,3,9,1,-12,1,18,0
1622149980775131,2,5,-2,-3,3,16,-16,-24
1622149980775131,2,-6,1,4,8,-22,6,12
1622149980782353,-5,-21,-8,-12,19,10,-17,7
1622149980782353,4,28,0,7,-13,-13,14,-1
1622149980798631,-5,-9,-3,-3,-13,-8,-19,1
1622149980798631,7,6,5,3,-20,9,-1,-4
1622149980799383,-2,-21,3,0,12,3,25,22
1622149980799383,-11,-1,-9,-9,4,-2,-2,-4
1622149980814536,-2,-2,1,-1,-20,-10,-39,-13
1622149980814536,-5,-9,-13,-7,16,12,40,2
1622149980820054,-1,-18,3,4,-15,-9,-11,-12
1622149980820054,12,14,4,4,12,3,43,33
1622149980834943,-2,-1,-8,-5,3,-11,-34,-3
1622149980834943,-13,-10,-4,1,-5,6,-6,-6
1622149980842919,0,13,4,-3,-14,1,8,-3
1622149980842919,-1,-6,-6,-14,43,-20,-7,-7
1622149980857912,4,11,3,11,-30,-9,6,-7
1622149980857912,-6,0,-3,-5,2,7,0,7
1622149980858901,-6,-12,0,1,-22,-29,-15,-9
1622149980858901,1,-4,-3,2,19,17,18,13
1622149980873839,0,-3,-4,-4,-16,3,-2,-24
1622149980873839,-1,1,-2,-3,10,3,-22,-1
1622149980879837,-6,5,4,-5,-26,3,4,4
1622149980879837,1,-9,1,7,12,0,-1,-1
1622149980894825,1,-3,-5,-3,4,0,24,5
1622149980894825,0,-1,-2,-1,18,14,-19,-6
1622149980902801,6,14,-1,-2,29,-11,18,-10
1622149980902801,-6,-13,-4,-1,-47,8,-8,-16
1622149980918592,-2,5,9,5,25,-1,8,29
1622149980918592,-2,16,2,8,-31,-20,6,-13
1622149980918592,1,-30,-3,-11,-12,-11,-25,8
1622149980918592,10,40,1,-1,9,-4,-5,-4
1622149980933965,3,-3,-6,2,18,11,11,0
1622149980933965,-7,-10,1,-3,-18,1,14,1
1622149980939976,-3,-4,-3,4,15,-2,-10,5
1622149980939976,-9,-11,-2,-5,-46,0,0,-8
1622149980955019,-2,-4,-1,-6,-3,0,-5,4
1622149980955019,4,13,0,3,14,4,-18,4
1622149980962126,-7,3,-3,-6,-6,4,-5,-22
1622149980962126,0,-20,-2,5,0,-7,-10,2
1622149980978635,-6,0,-10,-9,-36,-12,32,3
1622149980978635,3,-8,8,-4,13,5,-12,-15
1622149980978635,12,-14,-4,0,3,20,-9,30
1622149980978635,-9,4,-3,1,11,0,42,-10
1622149981002129,7,13,7,5,-13,0,-3,2
1622149981002129,-4,-14,3,3,10,-21,-15,-8
1622149981003128,-2,16,-6,-5,3,-4,-9,-6
1622149981003128,-2,-14,5,2,6,-4,-16,0
1622149981015202,-5,-15,-4,-1,3,31,61,9
1622149981015202,8,6,-6,-10,-5,-23,-65,0
1622149981022914,-4,8,12,14,9,-3,25,7
1622149981022914,14,-8,-11,-11,-2,25,-18,0
1622149981038692,-21,8,2,1,4,-33,0,-11
1622149981038692,0,-6,-3,-6,3,20,8,3
1622149981038692,-3,-10,-7,-2,-17,0,-5,2
1622149981038692,3,4,1,-4,-15,-29,0,4
1622149981054387,10,1,0,-2,7,-2,1,3
1622149981054387,-2,-25,-4,0,9,20,15,9
1622149981060441,3,2,-5,1,4,11,10,1
1622149981060441,2,28,1,-4,-29,-8,10,-4
1622149981075505,3,1,8,-2,-9,-9,-30,20
1622149981075505,-15,-6,-3,4,-28,1,11,-3
1622149981082869,1,-19,-4,-7,-16,4,7,-2
1622149981082869,3,-1,-12,9,26,3,-5,-5
1622149981097983,-4,-5,9,-7,-1,-6,15,-13
1622149981097983,-1,14,5,4,27,-16,-38,0
1622149981105458,4,11,-1,1,-13,-16,7,5
1622149981105458,-9,-11,-8,-3,12,-3,-33,-19
1622149981114488,1,-4,-1,6,0,3,-25,2
1622149981114488,3,2,4,-2,-15,1,13,-4
1622149981119697,8,-12,-4,3,24,-2,-12,-3
1622149981119697,-17,2,-2,-10,-4,-4,6,2
1622149981135015,5,17,3,4,1,11,10,9
1622149981135015,0,3,-6,-5,-4,19,-15,-15
1622149981142410,-6,-16,1,-1,-6,15,23,-2
1622149981142410,0,33,2,5,22,12,18,17
1622149981157990,2,-15,-3,0,6,-16,-6,22
1622149981157990,7,9,0,3,-8,5,42,6
1622149981165221,2,6,-3,-5,4,-6,-35,-15
1622149981165221,-12,-17,2,0,14,-12,9,5
1622149981173792,-7,1,0,-6,-34,15,-22,-1
1622149981173792,3,7,-7,5,37,-21,17,-15
1622149981179822,-8,-13,8,0,13,34,-2,0
1622149981179822,12,-7,4,-3,-66,-31,-14,-2
1622149981194813,0,0,-8,-1,15,7,-30,-14
1622149981194813,3,16,-6,-9,-15,-26,10,13
1622149981202994,-7,8,2,5,28,-16,-4,-10
1622149981202994,5,-8,0,1,-1,18,-1,-2
1622149981217982,-6,-17,0,-7,-1,-6,5,-12
1622149981217982,3,-13,-7,-4,-37,5,-3,2
1622149981225428,-11,-3,1,2,12,19,0,-9
1622149981225428,6,46,8,14,38,-6,2,-13
1622149981240866,-5,-5,-6,-2,-21,-2,-1,26
1622149981240866,13,-6,-5,-16,12,-7,-5,-29
1622149981241832,-1,-3,-2,0,-16,-14,31,9
1622149981241832,-6,-4,9,5,8,-3,-17,3
1622149981254827,2,3,-4,3,25,-15,-21,-14
1622149981254827,-3,11,3,10,-16,-11,22,7
1622149981262796,0,-9,-6,-15,-28,-17,-16,-4
1622149981262796,-2,-26,2,2,13,2,7,1
1622149981277909,4,30,2,-5,-6,16,40,-15
1622149981277909,-5,-10,0,2,7,-4,-29,4
1622149981284832,-2,-8,-9,-8,0,-27,4,8
1622149981284832,-8,-13,-2,-3,-36,5,-19,-24
1622149981300865,-8,-1,-3,5,4,-13,-16,-7
1622149981300865,-10,-6,4,3,22,19,8,-9
1622149981301863,-3,13,-5,-3,-11,-41,1,-1
1622149981301863,9,-28,1,2,-16,23,-25,45
1622149981315177,-4,-15,-8,-2,32,2,29,-8
1622149981315177,1,20,7,1,-38,-25,-28,-1
1622149981322904,7,-9,-4,-8,-7,7,1,0
1622149981322904,-7,17,-2,4,24,4,20,-5
1622149981337863,9,-15,-4,-3,7,1,2,-5
1622149981337863,-18,-6,-4,-5,-18,-1,3,15
1622149981345453,0,8,1,-3,-24,13,6,18
1622149981345453,-2,-21,-9,-4,8,-20,-14,-14
1622149981361110,-4,-3,-1,-2,-3,-2,-3,3
1622149981361110,11,20,7,-1,8,20,-6,-13
1622149981361110,10,-5,0,8,9,25,64,9
1622149981361110,-3,-9,-6,-9,-4,-10,-58,5
1622149981375509,-5,-11,3,0,11,-23,-8,-10
1622149981375509,-14,-7,4,1,-10,3,14,13
1622149981382879,3,-19,-15,-1,-24,11,-27,-8
1622149981382879,-7,16,7,-5,14,12,10,8
1622149981406917,2,-2,-2,1,12,8,8,-20
1622149981406917,-1,-28,-4,2,-1,3,-15,9
1622149981408512,-5,27,14,8,-1,-1,31,-6
1622149981408512,5,7,-9,2,0,-7,13,3
1622149981420563,-3,-10,-1,2,-5,-7,-26,4
1622149981420563,-1,-12,-1,-5,18,22,40,13
1622149981421538,0,24,3,1,37,-5,-32,-5
1622149981421538,1,-13,-2,1,-33,-26,-21,-5
1622149981435500,1,7,1,-12,-50,-13,20,4
1622149981435500,-2,-5,-1,2,29,6,-12,-18
1622149981442505,-2,7,0,0,-11,-8,37,26
1622149981442505,-1,-7,5,5,19,16,-10,-1
1622149981457460,4,-3,-1,-6,9,-21,3,4
1622149981457460,-9,-19,-12,-14,-16,-4,-15,1
1622149981465418,-4,17,1,3,5,-9,-17,-18
1622149981465418,9,-8,-3,-1,6,12,17,-5
1622149981481099,-3,1,3,6,-31,3,-10,1
1622149981481099,-3,16,4,-1,8,16,37,-1
1622149981481099,-12,-28,0,5,-23,-49,-19,15
1622149981481099,24,-8,-7,-7,33,27,11,1
1622149981495064,-25,13,2,-6,-18,7,-20,-10
1622149981495064,11,-5,-1,9,39,-2,19,4
1622149981502216,-14,-3,4,-1,-28,9,-63,-43
1622149981502216,-2,1,-5,-8,19,-3,31,-6
1622149981517261,8,-6,-3,4,-54,-21,5,24
1622149981517261,-7,5,-2,-9,-15,-2,-19,-7
1622149981525243,13,10,2,7,37,14,11,0
1622149981525243,-13,-23,-3,-4,0,-30,-13,0
1622149981540230,4,14,2,0,1,33,-13,-22
1622149981540230,-3,-17,-4,-6,8,19,4,10
1622149981541226,-2,2,1,4,4,-38,-43,-19
1622149981541226,7,-1,-1,-3,-25,14,26,7
1622149981555212,0,4,2,6,31,17,-15,0
1622149981555212,2,8,2,4,7,-19,32,18
1622149981562193,16,4,-3,-10,5,5,-26,-19
1622149981562193,-29,6,-1,9,3,-7,-2,-8
1622149981577980,1,-22,-6,-5,-29,-11,-26,-1
1622149981577980,11,19,-3,-5,6,-3,24,2
1622149981584990,-5,-13,0,0,0,10,4,3
1622149981584990,-3,3,-1,-1,15,5,30,4
1622149981601068,6,-6,-8,-4,-10,3,-2,-1
1622149981601068,1,7,3,3,-2,-15,-10,0
1622149981601068,-11,-15,-2,-5,0,0,-18,-16
1622149981601068,-2,13,-2,0,-6,-10,-16,-4
1622149981615119,-8,-1,-2,-3,21,32,43,13
1622149981615119,5,-14,-5,-3,0,-25,-42,10
1622149981622942,-6,8,1,3,-4,6,47,7
1622149981622942,6,-4,2,-3,-13,8,-17,-1
1622149981637842,-6,-2,-5,-2,11,1,-1,-7
1622149981637842,2,-2,1,5,-7,-13,-2,-5
1622149981645442,2,8,-7,-10,-1,21,-5,7
1622149981645442,-7,-17,6,9,31,-20,-3,-7
1622149981660806,10,25,1,-2,-25,-15,11,8
1622149981660806,-1,26,3,6,-7,27,-5,-8
1622149981661746,13,-18,-7,-7,-13,-11,-9,-16
1622149981661746,-20,-2,4,-2,1,5,-10,10
1622149981675466,4,14,-1,3,19,-20,53,8
1622149981675466,-6,-12,-5,1,-10,5,-32,-35
1622149981682920,1,10,-3,-1,36,7,13,15
1622149981682920,0,6,-1,-13,-80,5,3,-2
1622149981697958,-2,-23,0,1,32,-14,-21,-7
1622149981697958,0,1,0,5,8,14,19,1
1622149981705028,-10,8,2,2,-45,-6,-21,9
1622149981705028,5,-5,-1,-8,21,15,31,-5
1622149981721157,1,-5,-1,-8,-5,1,-36,-2
1622149981721157,0,29,-2,2,8,6,14,-1
1622149981721157,-2,-12,8,4,-4,-3,-7,-1
1622149981721157,7,0,-1,4,2,-4,-10,4
1622149981736317,-6,-8,3,1,37,7,6,-24
1622149981736317,-1,-7,-4,3,-30,-31,-42,17
1622149981742965,-7,18,-3,-5,11,14,17,3
1622149981742965,-6,1,-7,-5,0,-14,4,-9
1622149981758021,4,-22,1,3,2,6,3,14
1622149981758021,-9,2,-13,1,8,0,-14,-6
1622149981765438,-9,13,12,-15,-4,1,33,2
1622149981765438,8,12,-1,-2,14,-20,4,4
1622149981781103,0,10,-5,3,-11,-3,-22,-3
1622149981781103,-4,-24,0,-2,-2,3,39,6
1622149981781103,7,-19,-9,-1,-27,-18,-60,-6
1622149981781103,1,9,-3,-2,-20,8,2,-7
1622149981796070,-3,0,2,4,15,-11,-8,-7
1622149981796070,-18,-14,4,-5,20,5,8,-22
1622149981803052,0,7,-1,0,-37,-5,-19,-15
1622149981803052,5,-3,-2,0,14,2,3,18
1622149981817014,-5,6,-2,-6,-16,18,1,-2
1622149981817014,5,-20,-8,-4,22,-32,-1,-10
1622149981825436,-3,-9,8,11,-4,-25,5,26
1622149981825436,-7,4,-3,-5,6,3,-2,-15
1622149981840927,4,22,4,0,-16,7,13,0
1622149981840927,0,-4,2,0,23,7,-15,-3
1622149981841925,-1,-3,-5,0,6,14,43,6
1622149981841925,4,-18,-4,2,-29,-24,-30,-2
1622149981856048,-13,-9,1,-8,15,-5,7,-1
1622149981856048,30,34,0,-9,-45,6,-19,-8
1622149981862953,-23,-10,-6,6,48,-11,9,-8
1622149981862953,-3,-7,7,-1,-64,-6,0,4
1622149981878001,18,-13,-6,3,36,-17,-35,-23
1622149981878001,-19,13,-3,-7,-31,15,7,-3
1622149981884984,6,2,0,1,3,-15,8,10
1622149981884984,4,-8,-3,5,11,20,25,-2
1622149981900988,-4,-9,0,-1,-16,-5,-41,7
1622149981900988,12,9,-1,-1,15,12,20,-4
1622149981901979,8,-6,2,-1,21,-8,11,-1
1622149981901979,-16,-15,-1,0,16,35,9,5
1622149981916398,11,57,5,3,-31,-5,26,20
1622149981916398,-12,-11,3,-1,25,10,-7,10
1622149981922986,-2,-17,-10,-9,-19,8,-21,-20
1622149981922986,11,4,0,1,19,0,17,5
1622149981937997,-6,-2,-3,-4,-10,0,14,0
1622149981937997,-2,-14,-6,1,-7,-6,-6,2
1622149981952988,5,5,13,12,20,3,-24,-11
1622149981952988,18,7,-6,-6,-2,-8,6,-11
1622149981960918,-19,-3,-3,-6,-20,4,-12,6
1622149981960918,-1,-15,-5,-10,-35,-5,-17,-31
1622149981961916,1,9,-5,-1,0,9,12,8
1622149981961916,4,7,1,1,5,-6,6,-7
1622149981976851,-2,-9,3,3,13,-1,4,-1
1622149981976851,4,-2,-1,-4,-33,1,-7,13
1622149981982872,2,10,3,-2,0,-24,5,-2
1622149981982872,1,-7,2,-6,-8,-4,-29,-5
1622149981997954,-11,8,-7,-1,26,18,51,8
1622149981997954,-8,-13,2,5,-19,-26,-4,2
1622149982005455,3,-4,-8,-3,-24,22,-8,-7
1622149982005455,-4,13,0,0,31,-16,-5,-2
1622149982019631,3,-31,-6,-1,-10,0,0,-14
1622149982019631,2,3,9,-1,24,-23,-13,5
1622149982027928,-7,-5,-2,2,-12,16,17,26
1622149982027928,-6,8,0,1,-13,-29,1,-3
1622149982036912,15,-9,-8,-4,17,40,-6,2
1622149982036912,-11,-11,5,7,-19,-47,-20,-5
1622149982042892,7,-2,-3,-2,41,14,16,-1
1622149982042892,12,1,1,-8,-12,-5,-9,6
1622149982058070,-16,-3,-9,-6,23,-10,20,6
1622149982058070,3,-5,3,2,-5,25,12,20
1622149982065389,13,18,7,4,-10,5,-32,-2
1622149982065389,-5,-19,-3,1,6,0,-10,19
1622149982079858,5,23,2,-1,-19,-19,-2,-28
1622149982079858,3,0,-3,-5,41,-5,-20,2
1622149982087342,-4,-6,-2,-3,-60,-25,45,5
1622149982087342,-5,1,-13,1,23,22,-15,-6
1622149982097018,2,-14,11,0,-13,-11,-12,-2
1622149982097018,4,4,-4,6,29,17,8,-2
1622149982102007,-7,-1,-2,-6,-23,-16,-31,13
1622149982102007,-11,5,-1,-1,-6,-4,2,-6
1622149982117132,-1,-4,4,1,-5,-2,-13,-1
1622149982117132,3,9,-2,6,27,12,11,-1
1622149982125507,-9,-8,-4,-11,19,27,12,-14
1622149982125507,2,0,-2,4,-13,-17,-12,-1
1622149982139948,0,7,1,-8,-3,-17,-18,-14
1622149982139948,-9,2,4,7,10,15,-14,-6
1622149982148031,5,-4,-4,-3,-31,4,9,8
1622149982148031,-11,0,7,-1,13,-4,-3,-8
1622149982156196,5,-16,-5,-3,-4,6,23,4
1622149982156196,3,15,-1,-5,-9,-6,8,7
1622149982163030,0,-4,-2,3,15,10,-31,-12
1622149982163030,6,0,10,5,8,-3,-1,-8
1622149982178015,-4,5,-1,6,-24,-1,-1,3
1622149982178015,4,-19,-7,-11,2,7,26,20
1622149982184999,-7,-5,-7,2,15,5,-4,18
1622149982184999,-1,13,3,-11,-19,13,6,-20
1622149982199807,-2,-15,3,6,2,-4,4,-1
1622149982199807,-1,11,3,2,-24,-11,-30,-18
1622149982207805,19,-5,0,-5,-2,18,13,6
1622149982207805,-15,-16,-5,6,37,4,10,7
1622149982223091,11,-6,-5,-3,-32,-22,-4,-12
1622149982223091,-11,13,1,-1,10,10,7,1
1622149982224110,-5,-8,-4,-1,4,-18,4,-6
1622149982224110,5,11,-1,-5,-12,-2,0,-5
1622149982237788,14,-3,2,5,39,28,-2,12
1622149982237788,-11,-8,1,-5,-63,5,11,-2
1622149982244800,-8,7,4,2,48,1,15,11
1622149982244800,0,-5,-13,-10,-16,-13,-7,-15
1622149982259823,1,8,-1,3,1,-15,-26,-15
1622149982259823,-2,-18,7,1,53,17,13,24
1622149982267968,1,-2,-14,4,-21,-9,-19,-18
1622149982267968,16,21,11,-6,-24,12,14,13
1622149982282800,-15,0,-2,-7,11,-8,-26,-12
1622149982282800,1,-19,-6,1,1,1,62,22
1622149982283800,1,38,13,0,13,-10,-46,-11
1622149982283800,1,-16,-10,0,-8,-25,3,1
1622149982297784,2,5,2,-5,-37,10,-1,4
1622149982297784,-2,-4,-7,1,15,-9,-34,4
1622149982304741,5,-22,-2,-8,0,14,35,-18
1622149982304741,-8,25,2,3,-34,11,-23,10
1622149982319699,-1,-5,2,8,36,-13,-19,-7
1622149982319699,-16,-5,-9,-8,-32,6,17,-9
1622149982328017,-6,-8,-4,-10,4,0,-23,-16
1622149982328017,-12,-15,-3,2,10,16,3,8
1622149982343048,4,3,-5,2,12,-2,31,23
1622149982343048,11,13,-2,4,-5,-2,3,-10
1622149982343977,1,3,4,-2,13,-7,-12,-11
1622149982343977,-5,-34,-9,0,0,2,22,-13
1622149982357938,6,28,-3,-6,-19,-15,-18,36
1622149982357938,6,-6,9,-2,22,10,-5,-18
1622149982365057,0,15,-1,10,-12,-18,27,10
1622149982365057,3,0,8,3,-12,-5,-14,4
1622149982379849,-14,-9,-8,-8,-9,30,15,0
1622149982379849,4,2,-3,-4,-19,-15,-26,-12
1622149982396198,-5,-18,1,-2,24,5,16,5
1622149982396198,-16,-13,-5,6,-5,-17,-54,-10
1622149982402868,14,13,-6,-2,27,22,61,26
1622149982402868,-8,-1,10,-1,-23,-39,-26,-5
1622149982404517,-3,13,-3,-5,-3,15,2,-2
1622149982404517,3,-5,-3,-5,14,10,4,2
1622149982418066,-3,5,5,-1,0,1,16,-8
1622149982418066,1,-11,-5,2,-17,-12,-22,-26
1622149982425528,11,2,1,1,12,7,16,14
1622149982425528,-12,-8,-4,-2,0,-9,13,4
1622149982439816,-15,13,2,0,4,2,-31,-30
1622149982439816,4,1,-6,-3,-6,0,10,4
1622149982447914,-6,-1,12,9,-4,-11,-17,-8
1622149982447914,12,7,0,-5,34,33,24,-4
1622149982463030,-2,-15,2,3,-55,-37,-35,-5
1622149982463030,-3,-5,-8,-5,25,9,12,9
1622149982463966,-3,2,-2,-3,-25,8,-6,1
1622149982463966,1,-3,2,2,12,-6,40,1
1622149982478034,-2,-8,3,-2,-3,11,-36,-13
1622149982478034,4,10,2,2,9,-3,11,3
1622149982485040,-5,-9,-4,-4,-49,-10,-5,2
1622149982485040,-3,6,-2,0,-10,-3,3,-17
1622149982500004,4,-1,-5,-1,6,16,21,-11
1622149982500004,5,-37,-6,0,7,8,-10,4
1622149982507634,2,38,8,-9,-22,5,54,-4
1622149982507634,3,-2,-4,-1,17,-47,-104,-2
1622149982522891,2,0,-4,-2,3,-3,12,-4
1622149982522891,-6,-10,2,2,5,-12,6,14
1622149982524487,-12,-15,-3,15,31,-7,-17,5
1622149982524487,5,16,8,-6,-25,1,-15,-29
1622149982537845,-3,-8,-2,-7,27,6,35,33
1622149982537845,-6,6,-12,-4,-11,22,-1,-5
1622149982545483,-4,-15,3,-3,16,3,-19,4
1622149982545483,1,18,2,1,-1,-10,19,-13
1622149982559968,-3,-14,0,1,-27,6,-6,-2
1622149982559968,-2,-3,-4,-3,23,-11,-22,-5
1622149982567910,8,37,5,-12,-33,-9,13,-1
1622149982567910,20,-13,-3,9,5,6,5,13
1622149982582865,-20,7,-4,1,29,3,20,-10
1622149982582865,12,1,7,3,-13,-16,-24,16
1622149982583867,-9,-14,-9,-13,-32,-26,-29,-18
1622149982583867,-10,4,-7,-5,8,6,22,7
1622149982597850,18,-24,-3,5,21,-4,-32,-6
1622149982597850,-17,11,8,6,19,8,34,7
1622149982604832,5,8,-8,-8,-14,-13,-1,-2
1622149982604832,-2,-10,-1,2,-5,-19,-12,14
1622149982619766,17,-12,5,-3,-3,4,-6,-10
1622149982619766,-14,12,2,5,7,28,43,-7
1622149982628024,2,18,0,5,12,-29,-30,-21
1622149982628024,6,-5,-9,-8,-3,29,17,10
1622149982643016,-9,9,-1,1,-24,-15,3,11
1622149982643016,13,3,6,-8,2,-30,-41,-20
1622149982643986,-5,-15,1,10,20,39,35,17
1622149982643986,-14,-31,-3,-7,-10,7,11,6
1622149982657446,3,32,-3,5,6,-9,12,1
1622149982657446,7,14,-2,-2,-3,6,-35,-7
1622149982665021,8,-7,1,-4,7,7,-6,-3
1622149982665021,-20,-20,-1,9,-8,0,9,9
1622149982679893,3,9,8,-8,-20,-14,11,10
1622149982679893,-11,-4,-9,-9,-2,31,14,-9
1622149982687898,6,-21,-2,10,3,-13,1,10
1622149982687898,-5,0,-2,-2,4,8,3,-1
1622149982703764,-11,20,0,-6,13,-6,-2,-1
1622149982703764,4,7,-2,-4,-19,-25,-13,-11
1622149982703764,-4,-29,-5,3,39,15,-14,-4
1622149982703764,6,20,1,-10,-48,14,7,-3
1622149982718054,-7,-24,-7,0,27,-1,4,-2
1622149982718054,6,1,0,0,-29,-20,-8,6
1622149982725525,-8,-10,2,-1,4,5,3,-1
1622149982725525,-3,1,-7,-1,26,-15,-35,-4
1622149982739881,24,-5,3,-10,-25,3,43,-27
1622149982739881,-20,-5,2,5,-3,16,4,19
1622149982747942,-20,-27,-10,-6,-21,-11,-4,-3
1622149982747942,16,49,11,3,-20,-15,14,9
1622149982763689,-1,-15,-15,-8,12,-36,-22,8
1622149982763689,8,-3,9,9,-15,11,3,-8
1622149982763945,-2,1,-8,-2,27,12,2,2
1622149982763945,2,0,2,-2,-9,-2,3,-9
1622149982785216,-10,-13,6,7,-13,-18,-28,0
1622149982785216,-3,-4,-6,-12,-7,24,33,3
1622149982786228,-4,14,-1,0,6,-31,5,5
1622149982786228,0,-10,0,3,17,7,-12,-6
1622149982800282,2,-9,0,2,5,-5,-8,3
1622149982800282,-10,-15,-10,-6,-20,2,1,-18
1622149982807261,-1,-4,2,3,-34,-5,-1,-26
1622149982807261,4,-3,0,-2,26,10,-8,15
1622149982823225,-6,-1,-6,4,28,1,-8,-10
1622149982823225,12,-2,9,-8,-55,-18,-19,-1
1622149982824191,-1,13,2,5,18,15,32,9
1622149982824191,-3,3,2,-6,4,-13,3,3
1622149982837851,-17,-3,-11,-8,-42,7,-22,-3
1622149982837851,3,-15,0,-3,28,-30,0,5
1622149982844830,14,24,1,-2,12,23,-21,2
1622149982844830,-8,0,5,7,-8,1,26,-6
1622149982859780,6,3,-3,-2,-20,13,5,6
1622149982859780,-9,-4,-8,2,31,-19,-23,-4
1622149982867769,3,-22,0,-4,-21,-1,18,23
1622149982867769,6,22,0,1,15,-7,9,-4
1622149982883823,-2,-4,2,4,15,8,7,2
1622149982883823,4,13,2,3,0,-4,6,12
1622149982883823,-10,-7,3,5,24,3,-6,-5
1622149982883823,-1,-22,-15,-20,-22,-5,-20,-2
1622149982897781,-14,-4,11,13,15,-25,-4,-14
1622149982897781,15,18,-1,-5,-37,8,8,3
1622149982904766,-4,-22,-6,-5,-4,-33,-7,0
1622149982904766,-10,8,-8,-5,-8,-6,-27,-15
1622149982919826,6,-22,0,4,9,37,14,2
1622149982919826,-1,1,-2,0,22,-13,13,18
1622149982927999,9,23,7,1,-7,-5,6,-16
1622149982927999,-6,-1,-1,2,-31,0,-24,0
1622149982942963,-11,-4,-5,0,9,-1,-16,-5
1622149982942963,-5,-6,-1,1,37,16,1,2
1622149982951060,-9,-6,-5,-7,-31,7,28,3
1622149982951060,12,-7,-2,-7,0,6,-13,2
1622149982958051,10,17,4,8,-7,-2,1,2
1622149982958051,-2,-3,1,3,-13,24,1,-6
1622149982965035,0,1,-3,-3,1,-61,4,-8
1622149982965035,11,-10,-2,4,16,14,33,16
1622149982980128,-18,21,-5,-8,23,-6,-20,-3
1622149982980128,8,-15,0,-4,-27,3,-3,-15
1622149982988035,6,53,4,2,1,-5,-8,13
1622149982988035,-8,-15,0,-7,-26,-5,12,-3
1622149983003050,0,-5,4,-9,-18,-12,10,-4
1622149983003050,3,3,0,4,-11,-37,-66,-6
1622149983010996,-1,-14,-6,-4,-11,32,35,-2
1622149983010996,-3,-2,1,-3,46,6,14,1
1622149983017937,2,0,-13,-9,-22,-5,-29,-1
1622149983017937,-8,7,16,11,16,5,12,-7
1622149983025537,2,-16,-6,-1,5,22,-16,1
1622149983025537,5,0,-3,1,5,-44,-2,-6
1622149983040416,-18,-26,-2,1,-16,22,28,14
1622149983040416,11,43,0,-6,21,-24,2,-6
1622149983048055,-8,-6,0,-1,-3,-9,-20,-3
1622149983048055,12,-1,2,4,-22,2,1,2
1622149983063056,-2,-4,-2,0,4,-9,-28,-5
1622149983063056,-2,5,-10,-4,60,15,10,-5
1622149983070353,2,-2,1,0,-28,10,19,13
1622149983070353,-6,-2,7,10,-15,5,14,-7
1622149983079546,2,-6,-4,-3,26,-23,-49,-1
1622149983079546,-2,-4,-6,-7,-15,13,36,2
1622149983085320,3,-7,1,8,14,-10,-38,-3
1622149983085320,-5,0,-3,-1,-3,26,1,-1
1622149983100350,11,12,8,4,1,7,4,-1
1622149983100350,-10,-29,-9,-6,-35,-15,14,-19
1622149983108046,-4,12,4,3,-15,6,-10,1
1622149983108046,-8,-43,0,-4,-7,9,-16,-4
1622149983123008,5,77,1,-7,41,7,12,-8
1622149983123008,0,-8,-2,0,-14,-10,-26,5
1622149983129809,-1,-15,-9,-3,31,23,18,1
1622149983129809,17,-1,3,5,-18,-3,-8,0
1622149983145771,-12,-11,2,2,-24,8,15,0
1622149983145771,-3,-5,-5,-4,21,14,1,3
1622149983146772,1,6,5,4,10,-14,-55,-34
1622149983146772,-3,4,-5,-5,34,18,67,31
1622149983159753,-1,-13,-1,-16,-57,-28,-31,-34
1622149983159753,-8,4,4,6,17,0,2,5
1622149983168040,5,-7,-3,-1,-19,13,16,21
1622149983168040,0,2,1,2,16,-7,-27,-8
1622149983182836,6,-18,-1,1,4,8,12,5
1622149983182836,-2,19,-8,-5,-17,5,5,18
1622149983189816,8,26,12,-3,-8,-7,-26,-16
1622149983189816,-8,9,-5,-10,21,-17,10,-4
1622149983206270,5,0,6,15,-13,9,22,24
1622149983206270,-6,-27,-2,-3,-12,3,10,-6
1622149983206270,3,2,-6,-8,-9,6,4,5
1622149983206270,-2,4,2,-1,-14,-24,-1,-1
1622149983219798,0,-6,-4,-1,18,-7,-46,-35
1622149983219798,6,1,9,4,5,1,1,-2
1622149983228003,-9,-13,-3,-1,-10,14,33,24
1622149983228003,-2,4,-3,6,27,-14,-19,-10
1622149983242968,6,-12,1,-8,-46,-7,3,22
1622149983242968,-13,3,0,-1,21,19,0,-5
1622149983249949,9,-15,-4,-5,-4,-19,-16,-8
1622149983249949,-7,3,-1,16,-8,20,-16,-10
1622149983265941,-7,-7,-2,-6,3,16,12,0
1622149983265941,9,13,-9,2,13,-21,-3,23
1622149983266906,-3,-36,4,-10,-4,-12,-5,5
1622149983266906,-9,6,-2,0,5,2,-25,-26
1622149983279953,2,-3,-1,5,-23,17,58,17
1622149983279953,5,1,-2,0,15,-9,-45,-9
1622149983287927,-2,-13,-5,0,-7,0,0,-1
1622149983287927,-2,18,-2,-3,17,12,33,12
1622149983302886,2,-17,3,4,5,-9,-28,-9
1622149983302886,-1,34,1,-2,-60,9,43,5
1622149983310120,-8,-21,-6,4,44,-15,9,0
1622149983310120,9,13,3,-11,-24,-2,-9,17
1622149983326237,-5,-4,-4,0,37,-4,1,-7
1622149983326237,8,-14,0,-6,-31,4,11,-8
1622149983326237,-4,13,-2,7,27,-14,-52,-8
1622149983326237,-11,-2,8,2,-49,-1,-1,-19
1622149983340088,4,-1,-6,-3,39,3,22,10
1622149983340088,1,-12,-4,-1,-36,-14,13,0
1622149983348058,-2,16,3,-3,5,-13,-18,-7
1622149983348058,-1,-15,-4,-5,2,-4,-15,-5
1622149983363056,-1,7,-1,-1,-6,2,20,6
1622149983363056,-4,-16,-5,1,17,-5,-21,-8
1622149983370177,-5,26,7,0,-21,4,17,2
1622149983370177,7,-13,-3,1,6,0,14,-7
1622149983386148,-16,20,8,4,-9,-10,-27,-7
1622149983386148,8,-18,-12,-8,9,19,29,4
1622149983386148,6,-24,-4,4,-25,9,28,10
1622149983386148,3,43,4,-5,27,-14,-25,4
1622149983400187,1,-9,-1,5,13,7,21,8
1622149983400187,-1,11,6,2,24,-15,-32,-14
1622149983408015,-14,-5,-1,-1,-7,18,7,-9
1622149983408015,9,7,-3,-4,16,-12,-11,11
1622149983423040,4,-29,-5,-11,-41,-11,-4,-7
1622149983423040,4,32,1,7,19,30,13,-5
1622149983429852,-8,8,-3,-2,-12,-2,-6,-3
1622149983429852,1,-29,1,10,3,6,4,-5
1622149983446222,-1,17,-6,-3,-19,-8,-24,20
1622149983446222,-9,-12,8,5,2,23,15,-28
1622149983446222,8,-14,-3,3,23,-31,-30,0
1622149983446222,-6,7,-3,-14,-18,12,20,6
1622149983459890,-2,-3,-11,-4,6,19,0,0
1622149983459890,2,-3,8,11,10,-1,31,11
1622149983468032,1,-15,-5,-5,-5,-2,-27,-7
1622149983468032,-6,22,8,11,55,5,9,-3
1622149983482859,9,-13,0,-13,-45,-27,-13,3
1622149983482859,-13,7,-8,-5,-12,-13,2,8
1622149983489871,3,-2,9,2,18,21,-11,-21
1622149983489871,-19,-30,-11,-2,5,2,15,8
1622149983506272,12,27,3,-6,-3,2,20,-1
1622149983506272,-1,-32,-6,-6,34,-23,-23,-25
1622149983506272,-4,22,-1,4,-8,1,7,1
1622149983506272,0,-5,10,2,-1,9,9,17
1622149983520489,-7,-12,-8,-7,-46,-4,-39,-24
1622149983520489,-1,-8,-1,-4,-24,-6,8,9
1622149983527998,11,17,-5,-3,21,2,-8,5
1622149983527998,9,-8,-11,4,-4,-20,-35,-5
1622149983542448,-18,-3,15,13,25,18,26,2
1622149983542448,-3,-19,-6,-10,-2,-4,11,8
1622149983549991,4,7,1,-13,-69,0,-2,-4
1622149983549991,-5,-17,-4,-3,12,9,-10,23
1622149983566093,13,19,6,12,12,-8,7,1
1622149983566093,-1,3,-13,-12,-17,-26,-11,1
1622149983566093,-2,-3,-3,-1,-1,9,22,6
1622149983566093,0,-2,-6,-11,-54,-6,11,-13
1622149983579858,-6,-35,-8,0,29,-2,1,9
1622149983579858,23,68,23,13,-7,3,-64,-12
1622149983587111,-13,3,-8,-1,18,3,7,6
1622149983587111,-2,-11,2,0,-7,-2,-14,-8
1622149983603114,-8,-2,0,-4,-11,-10,-6,-12
1622149983603114,1,1,-5,-12,-12,19,50,12
1622149983609865,2,-6,0,1,-9,-6,13,14
1622149983609865,2,5,3,-2,-27,-26,-29,-16
1622149983625821,2,3,-4,6,50,7,17,0
1622149983625821,0,-8,1,-7,-27,3,-19,-2
1622149983626986,-11,-4,11,5,4,0,40,12
1622149983626986,-8,0,-3,0,-4,-15,0,8
1622149983639870,-2,-16,-2,5,3,2,2,-2
1622149983639870,-5,9,-7,1,10,-30,-24,4
1622149983648016,9,-3,1,-1,22,7,-10,-17
1622149983648016,-2,21,1,-4,-22,10,24,-2
1622149983663040,-9,-8,6,1,-23,-32,-9,9
1622149983663040,-9,-26,-9,-4,18,7,-10,-11
1622149983670524,6,15,-4,1,-6,9,1,-8
1622149983670524,1,-10,-4,-2,17,-1,18,15
1622149983685981,9,28,4,9,-2,-8,-53,-21
1622149983685981,-6,-19,2,1,-2,24,60,8
1622149983686978,5,10,-6,-1,-18,-23,35,3
1622149983686978,-5,-8,-2,-15,36,12,-55,-24
1622149983699943,4,-12,-9,-8,-28,-17,-11,22
1622149983699943,-2,14,7,17,8,-9,-7,9
1622149983707922,-9,-25,-7,-12,33,7,-9,-5
1622149983707922,5,-15,-9,9,-19,3,24,13
1622149983723014,-2,31,19,0,29,19,13,-1
1622149983723014,2,-2,4,-4,-22,-11,-14,-5
1622149983729957,4,-5,-6,-6,15,-6,-24,-26
1622149983729957,-5,-11,-7,4,1,-10,7,-16
1622149983746272,-3,-8,-6,-5,10,17,-8,-8
1622149983746272,14,-2,4,11,5,2,4,19
1622149983746272,-25,-7,5,-7,-20,2,-18,-6
1622149983746272,5,15,-1,-3,-13,8,41,0
1622149983759894,-4,1,-3,-10,13,12,-6,-10
1622149983759894,-4,-4,-3,2,-23,-17,-31,1
1622149983775887,3,-24,-10,-1,-2,7,50,7
1622149983775887,-9,7,9,-1,7,-22,-37,-29
1622149983782272,6,3,-11,-10,2,23,48,17
1622149983782272,-14,-4,-1,-7,5,-18,-15,-4
1622149983789875,1,4,3,-4,-18,-15,-10,22
1622149983789875,3,9,5,13,-1,26,5,-3
1622149983805906,-6,-6,-3,-2,-1,-17,-11,-12
1622149983805906,1,-23,-11,-8,-5,6,1,-10
1622149983806905,23,27,-2,8,14,-7,11,16
1622149983806905,-25,-6,9,1,7,-22,-20,-2
1622149983820029,-7,-4,-5,-2,-25,29,44,7
1622149983820029,19,-1,-2,-10,-24,-11,-12,6
1622149983827979,-19,-3,-3,1,41,9,-7,-6
1622149983827979,8,-17,0,1,-10,-6,1,11
1622149983842260,10,25,-2,-1,34,7,-5,-16
1622149983842260,-5,-3,6,6,2,-11,6,-32
1622149983850234,6,26,-1,-1,-9,-2,-4,16
1622149983850234,1,-9,-3,-6,0,-13,-14,1
1622149983866190,-7,-5,2,3,-7,-2,2,-1
1622149983866190,1,6,-1,10,40,5,4,-2
1622149983866190,1,3,-2,-5,-32,15,-10,-11
1622149983866190,0,7,-3,1,-5,17,-6,7
1622149983879894,5,10,3,-2,-10,-29,3,-3
1622149983879894,-12,-12,-2,-6,0,16,-14,-6
1622149983887874,1,11,1,1,-6,10,11,2
1622149983887874,-5,-17,0,-1,-22,-8,-3,4
1622149983902921,6,-4,5,3,25,10,15,5
1622149983902921,-17,9,-5,-1,-3,14,-51,-6
1622149983909902,7,-24,-1,0,-20,-12,16,-24
1622149983909902,-1,17,-2,6,14,21,14,-11
1622149983933836,-7,-12,-5,-6,-3,0,-20,4
1622149983933836,-3,-5,2,-3,-27,-17,11,18
1622149983934795,2,10,7,12,71,6,-16,6
1622149983934795,7,5,-4,-10,-74,1,5,-3
1622149983939803,0,-10,1,1,-11,-15,7,10
1622149983939803,-3,6,0,-4,44,15,9,-6
1622149983947997,2,-5,-3,2,-20,0,-22,-5
1622149983947997,0,16,5,12,44,5,-22,-2
1622149983962428,-12,-7,-2,-1,-53,-29,23,3
1622149983962428,12,-34,3,2,22,19,27,16
1622149983969897,-2,37,3,-5,-57,-5,-30,-5
1622149983969897,4,-14,-8,-7,38,-13,-10,-4
1622149983985006,14,-6,-3,-4,-53,-1,-5,3
1622149983985006,-12,17,1,0,29,28,0,-3
1622149983993499,-19,-31,-11,1,21,-24,-17,-8
1622149983993499,19,11,14,-4,-24,2,9,23
1622149984000053,-11,0,-5,4,26,2,-17,-9
1622149984000053,0,-5,-8,-5,-52,-10,22,-2
1622149984008056,4,-25,0,-5,2,12,-41,-12
1622149984008056,-12,0,-14,-5,17,13,57,4
1622149984023003,0,14,12,7,2,-33,-30,-9
1622149984023003,2,7,4,11,27,-7,-6,8
1622149984029827,-11,-11,-4,-2,-40,39,20,-4
1622149984029827,7,-27,-6,-7,-1,-15,9,-8
1622149984044823,-3,8,-3,-1,13,20,-25,-6
1622149984044823,2,16,2,-4,-44,-3,-4,4
1622149984053794,-2,8,0,-5,26,-17,18,-1
1622149984053794,-6,-9,0,-2,6,-19,-16,-2
1622149984059780,7,2,0,7,34,8,4,-16
1622149984059780,-1,5,-2,-4,-24,-11,-10,0
1622149984067758,2,-8,3,1,23,-12,7,4
1622149984067758,1,6,4,4,-37,9,-17,-5
1622149984090744,-8,-4,-6,-10,6,-2,3,-34
1622149984090744,16,0,-3,-3,7,1,-1,4
1622149984091763,-18,-7,-1,-6,-9,-1,20,8
1622149984091763,-3,-10,2,12,33,5,-11,-6
1622149984104726,-1,10,-3,2,-31,11,-5,-1
1622149984104726,-2,-6,-2,-4,3,-46,15,7
1622149984113779,3,21,7,10,1,-4,3,2
1622149984113779,-6,12,-3,-16,19,7,-32,-1
1622149984128775,-11,-26,2,-11,-53,-13,17,8
1622149984128775,5,-24,-3,-2,0,10,-17,-8
1622149984128775,11,34,1,-7,-6,-18,44,29
1622149984128775,-14,12,-5,7,-13,-3,13,-14
1622149984143047,8,-2,2,2,56,7,-7,32
1622149984143047,-12,-26,-3,-6,-49,-14,-2,-7
1622149984150018,5,4,-4,1,0,-5,-21,-2
1622149984150018,-1,-10,7,-4,-16,32,37,14
1622149984164976,4,8,-7,-4,21,0,-16,-11
1622149984164976,1,12,-3,8,27,28,-3,-5
1622149984172952,-7,-21,0,-6,-7,-30,-7,-2
1622149984172952,2,0,-13,3,-4,-7,6,-1
1622149984187862,-4,-15,15,-2,-39,-10,16,2
1622149984187862,6,9,-4,-9,60,3,-32,-6
1622149984188835,4,4,1,3,-35,2,-22,10
1622149984188835,-1,-2,-6,0,-5,-7,16,-10
1622149984202850,2,0,-3,3,-6,-14,-8,3
1622149984202850,-14,-11,2,4,11,12,28,7
1622149984209855,-1,-15,-6,2,24,-1,9,7
1622149984209855,-3,26,6,-7,-16,-30,-26,12
1622149984224942,11,-5,-7,7,13,18,-36,-4
1622149984224942,-11,7,6,-5,30,-8,47,18
1622149984233223,-7,-5,-6,-8,17,8,-21,-25
1622149984233223,8,-10,0,8,-24,22,4,-2
1622149984248207,-5,-4,-6,-5,4,-28,-13,5
1622149984248207,23,30,2,13,19,6,5,7
1622149984249208,-15,-18,0,-9,-44,1,0,-35
1622149984249208,5,1,2,-4,28,3,-18,2
1622149984263098,-18,-18,-16,-1,8,23,0,0
1622149984263098,4,-10,10,-6,-42,-21,22,9
1622149984270007,6,14,-3,6,22,21,20,10
1622149984270007,4,11,3,-5,-31,-12,-13,-2
1622149984285161,-8,-16,-3,0,13,-2,-4,-15
1622149984285161,-3,5,-10,-5,-25,-9,-22,-34
1622149984293115,-1,-14,-1,0,61,-1,9,24
1622149984293115,-1,-11,-4,-15,-63,-11,-24,-2
1622149984308745,2,2,2,6,55,28,45,-2
1622149984308745,-6,11,-3,-3,-15,-16,-35,-11
1622149984308745,3,13,19,14,-26,14,3,-11
1622149984308745,7,-27,-3,6,33,-22,-21,-4
1622149984322278,-3,21,2,3,-1,0,18,3
1622149984322278,-3,3,-3,-7,-19,30,1,-1
1622149984329872,-7,-12,-12,-3,-35,-20,-9,-10
1622149984329872,-7,6,1,-3,40,21,6,0
1622149984344940,7,3,3,4,-28,-22,-39,0
1622149984344940,-16,-9,-3,-4,16,-7,23,-1
1622149984352942,9,-1,-9,-2,11,10,-31,-6
1622149984352942,-3,-3,5,1,13,9,47,-9
1622149984368819,-3,7,-1,-6,-31,-56,-53,-14
1622149984368819,0,-3,-6,2,22,7,-7,-7
1622149984368819,2,-7,2,-3,-79,-13,-4,9
1622149984368819,-4,9,-9,1,26,5,20,0
1622149984382303,3,8,0,-2,5,4,-11,-10
1622149984382303,1,-4,2,-1,-9,-5,-17,7
1622149984390303,-10,-2,-4,-2,23,-10,-14,-3
1622149984390303,-14,-9,-3,-3,-40,11,-6,1
1622149984405512,6,-8,-4,-7,-17,-14,40,13
1622149984405512,-3,-4,-2,4,-4,28,-13,-3
1622149984413081,6,4,3,0,7,-3,33,18
1622149984413081,5,-2,1,0,24,-4,-17,-18
1622149984427880,0,17,6,2,-7,2,5,13
1622149984427880,-5,-12,-15,-11,-25,-10,-18,5
1622149984428851,-2,-14,8,6,53,20,25,-2
1622149984428851,11,15,5,-3,-31,-25,-22,4
1622149984442654,3,-21,-4,3,17,14,16,-7
1622149984442654,9,17,6,3,10,6,2,-1
1622149984449955,-16,-3,-4,2,-9,2,-11,-5
1622149984449955,-8,-29,-7,-13,-27,-11,0,-3
1622149984465154,7,24,-4,-3,26,5,-9,3
1622149984465154,-3,-12,-2,-13,-18,1,25,7
1622149984473132,6,-4,4,8,-19,-10,-43,9
1622149984473132,-5,12,-1,0,18,16,17,-1
1622149984489777,-2,-15,-5,-2,1,13,32,6
1622149984489777,-7,-9,-4,2,-9,-34,11,-17
1622149984491774,-1,-6,-6,-14,6,10,-22,3
1622149984491774,-4,-2,-5,6,-3,-46,-16,-7
1622149984502891,11,10,6,0,0,4,-5,16
1622149984502891,-18,-10,-7,2,-1,17,14,-3
1622149984509918,-3,11,2,0,-7,-3,24,-8
1622149984509918,0,-11,-2,-3,1,-7,-15,-23
1622149984524947,5,6,-2,0,14,-5,-23,4
1622149984524947,1,-3,10,5,12,26,-2,-6
1622149984532165,14,9,-6,-6,8,-14,10,-15
1622149984532165,-10,2,5,2,-23,1,13,18
1622149984548170,5,-1,-1,-9,-21,12,46,-9
1622149984548170,-20,-5,-3,5,12,-18,-27,-2
1622149984549171,10,2,-1,5,5,5,-23,-26
1622149984549171,-3,5,0,-5,27,-9,18,18
1622149984563089,-15,-18,-11,5,4,-9,-23,-13
1622149984563089,13,16,20,0,-47,-7,15,13
1622149984569893,-4,-8,-5,-1,-1,13,18,-3
1622149984569893,5,1,-1,-3,7,-14,12,28
1622149984585185,-5,-25,-7,-5,-18,9,-10,-4
1622149984585185,13,29,0,0,15,-30,16,8
1622149984593114,4,-7,0,3,35,12,-18,2
1622149984593114,-19,-13,-4,3,0,-3,-10,10
1622149984608782,-2,0,7,-4,-12,-6,-1,8
1622149984608782,2,-11,-10,-8,-20,2,16,15
1622149984608782,2,9,-1,10,10,-29,4,7
1622149984608782,2,-5,-2,2,24,33,20,2
1622149984623007,6,32,1,-11,18,-1,-20,-7
1622149984623007,-24,-19,-6,0,-28,-25,-21,-11
1622149984629799,-6,-3,-5,-9,5,5,17,29
1622149984629799,16,2,-4,4,-40,-3,-10,-24
1622149984646777,-12,-18,6,0,-8,-3,15,8
1622149984646777,18,24,0,10,18,12,-25,-10
1622149984652774,3,-4,0,-5,20,-9,25,8
1622149984652774,1,-7,-6,-2,-24,15,-8,-11
1622149984668553,-21,2,3,3,-8,4,1,2
1622149984668553,12,-31,-14,-12,10,-7,11,-7
1622149984669593,-25,17,12,11,-8,-16,-39,-17
1622149984669593,6,3,-3,-9,17,12,0,4
1622149984682865,1,-5,5,11,14,8,-7,-7
1622149984682865,-4,-2,-5,-5,-50,13,-13,-7
1622149984689942,-1,-11,-10,-17,16,-1,18,-9
1622149984689942,-3,1,-6,14,41,1,-23,1
1622149984705632,9,0,-1,-9,-28,-9,42,12
1622149984705632,1,1,7,12,15,18,-6,-4
1622149984712962,-9,-19,-3,-6,-24,-11,-1,-6
1622149984712962,2,-19,3,-4,6,4,-29,9
1622149984727874,-5,54,0,-9,50,25,34,-20
1622149984727874,-9,-5,0,-3,-2,-26,-4,25
1622149984728917,13,-4,4,23,-24,-20,-18,-7
1622149984728917,1,-4,-6,-17,29,29,24,7
1622149984742948,1,-3,4,20,-29,-35,-31,-18
1622149984742948,4,20,2,-10,35,52,13,-3
1622149984749918,-4,-2,-11,-37,-52,-41,-5,-4
1622149984749918,-6,-5,16,22,19,-1,-5,-24
1622149984766288,0,-18,-4,-5,-22,6,20,20
1622149984766288,1,6,2,8,10,-24,-34,-19
1622149984773124,13,-24,-6,-5,9,28,19,30
1622149984773124,-14,33,0,-5,-29,-2,-32,-30
1622149984787839,8,-6,-2,4,-11,-15,-17,14
1622149984787839,-8,-17,-6,8,53,2,11,-9
1622149984788836,11,25,10,3,-53,2,16,-2
1622149984788836,8,9,-3,-12,7,-11,-6,9
1622149984803131,-15,-6,0,1,-21,-9,20,-2
1622149984803131,1,-8,0,11,4,5,-6,3
1622149984810136,29,-32,-9,-30,36,36,-4,-6
1622149984810136,-36,27,6,8,-15,-10,26,-4
1622149984825620,6,-22,-6,4,-13,-9,-14,3
1622149984825620,1,30,7,-9,13,-12,1,-33
1622149984833070,-3,-7,3,38,20,3,0,10
1622149984833070,12,5,-5,-14,-33,1,-3,12
1622149984848031,-3,8,-4,-6,35,4,-20,-6
1622149984848031,-14,-36,-10,-16,-19,1,18,4
1622149984856047,-5,26,0,1,-7,10,-32,-14
1622149984856047,14,16,4,6,-16,-16,21,-11
1622149984863012,-8,-16,-9,-4,1,9,-21,-6
1622149984863012,9,1,4,-1,6,-13,-22,5
1622149984870250,-12,-2,0,1,0,17,-11,-8
1622149984870250,2,-16,-1,5,13,-2,56,17
1622149984885606,6,20,-3,-24,-8,-20,-25,-4
1622149984885606,-4,-9,-15,3,-10,6,13,8
1622149984893131,9,-2,8,7,29,-29,4,13
1622149984893131,-18,-21,-3,8,-15,0,-11,-44
1622149984908169,7,15,4,-1,17,19,12,25
1622149984908169,-2,-5,-1,-15,-28,-17,-9,16
1622149984915883,-6,11,-10,1,-15,4,12,-4
1622149984915883,5,-15,3,-7,-1,-11,-46,9
1622149984930858,4,-1,1,8,-5,-20,-1,-40
1622149984930858,-4,-2,-1,0,13,22,-2,7
1622149984931863,-9,-15,2,4,-6,-26,-14,-11
1622149984931863,13,20,3,7,18,6,14,19
1622149984944844,-27,-9,-5,0,6,21,-3,-13
1622149984944844,2,1,5,9,11,-3,-11,18
1622149984952826,4,4,-9,-12,7,18,-13,-6
1622149984952826,2,-16,-8,-14,-43,6,37,17
1622149984968028,6,16,5,1,39,-5,-10,5
1622149984968028,7,1,6,3,-65,0,30,-10
1622149984976339,-20,16,-10,-3,-12,16,-39,-36
1622149984976339,-3,-16,6,12,31,10,-3,37
1622149984982753,-2,-17,-5,-27,-32,-15,-20,-25
1622149984982753,13,15,-3,2,3,-14,1,-6
1622149984989833,-25,-9,-5,-5,-9,-4,26,2
1622149984989833,1,-1,6,0,3,-25,-15,-10
1622149985005633,4,10,0,19,21,12,3,6
1622149985005633,1,-29,-5,-16,-12,0,-2,0
1622149985012964,-8,32,1,5,27,-28,-32,-11
1622149985012964,14,-1,-8,-2,-12,40,21,-16
1622149985028004,-3,-24,-6,-11,-18,-9,23,28
1622149985028004,0,12,3,5,9,-5,-7,-4
1622149985035989,7,-1,1,-4,-5,19,-5,-13
1622149985035989,-4,-8,-5,0,18,-11,-9,15
1622149985050948,1,-12,-2,-2,-2,-2,-39,3
1622149985050948,-9,1,-6,14,0,8,24,24
1622149985051946,13,-3,6,-6,-22,-5,19,7
1622149985051946,0,4,4,2,7,-12,-7,-7
1622149985064911,8,-6,-6,12,-14,0,-10,7
1622149985064911,-21,6,7,-10,51,-5,-37,-29
1622149985072957,-9,-16,-3,-5,-5,15,16,10
1622149985072957,16,7,-9,-5,2,6,5,2
1622149985088103,-12,-10,-3,6,-28,-19,-2,2
1622149985088103,-10,5,-12,-12,-1,6,17,5
1622149985095926,7,-9,15,13,14,-7,-11,-14
1622149985095926,1,-8,-2,-9,-2,-14,-30,-27
1622149985110943,0,8,1,-1,11,28,19,13
1622149985110943,13,-1,1,5,-5,-7,21,3
1622149985111944,-20,-15,-9,-8,-10,-6,-11,17
1622149985111944,-3,-17,-12,-12,17,-6,-5,-11
1622149985125577,-2,29,7,5,-14,22,10,-8
1622149985125577,-1,-5,-7,-11,-3,-6,9,10
1622149985132974,-1,-20,1,9,-32,-11,8,8
1622149985132974,-8,20,5,4,-3,4,-1,-9
1622149985147900,7,19,-10,-12,2,9,-9,-16
1622149985147900,-2,-2,6,1,4,20,36,-7
1622149985156381,2,0,0,3,-7,-32,-55,2
1622149985156381,1,-15,-9,-6,20,25,35,9
1622149985171306,-3,-15,0,3,20,6,22,-4
1622149985171306,6,-1,0,-1,-17,-10,-42,-5
1622149985171306,0,16,-2,4,20,-8,31,-4
1622149985171306,-6,-10,10,-4,-1,-8,-15,9
1622149985185167,-1,15,4,5,-14,11,30,-1
1622149985185167,2,-7,-3,-3,-25,-43,-31,11
1622149985193175,3,3,-2,-1,15,29,12,6
1622149985193175,8,-6,-6,-1,-9,-18,7,27
1622149985208154,-4,11,3,1,15,-3,-7,-8
1622149985208154,-3,-3,3,8,11,-6,-21,-9
1622149985216136,5,1,-3,-3,-14,9,47,7
1622149985216136,-6,4,-2,3,-11,25,-13,32
1622149985230941,4,-4,-3,-15,5,-26,-11,-12
1622149985230941,-16,-3,-1,-6,7,19,-26,-3
1622149985231941,18,3,1,-11,-26,-21,16,10
1622149985231941,-9,-5,-1,4,-26,10,7,-21
1622149985244788,-19,-20,-6,-2,37,13,-27,-25
1622149985244788,5,3,1,10,21,-12,-6,26
1622149985252796,-1,7,2,-5,8,14,6,-6
1622149985252796,9,2,1,8,-1,2,-8,-12
1622149985268129,-11,-33,-9,-10,-5,-11,18,-3
1622149985268129,8,25,-1,4,-7,27,15,-4
1622149985276317,-3,1,1,1,1,-26,-13,-3
1622149985276317,-1,5,-1,6,-20,19,4,-5
1622149985290909,5,-18,8,5,6,-13,5,18
1622149985290909,-15,6,-2,8,-13,-12,-79,-53
1622149985291906,7,4,0,-5,-16,-8,93,42
1622149985291906,-5,6,-10,-15,11,16,-40,-33
1622149985304776,4,-14,3,12,26,-45,-12,7
1622149985304776,12,4,-2,-14,-52,10,54,15
1622149985312749,7,-3,5,12,11,-13,-63,-35
1622149985312749,-23,-9,-1,-3,15,-16,-1,6
1622149985327685,9,15,2,0,3,17,8,3
1622149985327685,1,-24,1,-5,-21,9,7,2
1622149985335689,-1,19,-9,-1,10,-33,-17,-4
1622149985335689,7,4,2,-5,8,-3,12,1
1622149985350678,-6,-12,5,-7,-31,-5,-6,24
1622149985350678,-1,14,-4,15,51,19,11,-5
1622149985351676,-11,-17,1,-3,-28,26,8,-12
1622149985351676,11,14,14,21,-16,-54,14,-4
1622149985364916,3,14,-7,-18,-17,16,-59,1
1622149985364916,-4,-15,-8,-22,-7,-18,66,-24
1622149985372797,-15,-7,-10,-6,31,0,-51,-11
1622149985372797,0,-12,12,8,-28,2,14,28
1622149985387786,0,3,3,14,-20,5,-3,-1
1622149985387786,-7,1,2,3,47,-5,16,7
1622149985395782,5,-15,-8,-4,-8,2,-1,2
1622149985395782,9,9,5,-6,2,-11,-13,-17
1622149985410751,-23,3,-8,2,-36,16,18,5
1622149985410751,3,-9,6,1,33,-13,-7,15
1622149985411722,-6,3,2,5,26,6,24,-1
1622149985411722,5,-2,-15,-10,-28,-10,-52,-2
1622149985425614,13,-6,-1,-6,13,-3,41,-30
1622149985425614,-17,-9,3,7,-25,-14,-27,-5
1622149985441307,14,17,2,1,0,23,-22,4
1622149985441307,1,-7,-2,-4,29,-17,23,-2
1622149985447991,1,12,6,12,23,-11,14,6
1622149985447991,-5,-32,-10,-15,-52,0,-27,5
1622149985455888,2,13,-1,-9,-10,29,22,5
1622149985455888,-3,2,-3,10,17,-26,-2,0
1622149985471314,-6,-12,0,-18,-14,-7,-9,4
1622149985471314,8,-3,6,11,7,9,4,-9
1622149985471314,-4,5,-4,-8,-9,-1,-17,10
1622149985471314,-21,5,-10,0,26,2,7,1
1622149985485387,-3,-11,0,1,-9,5,13,1
1622149985485387,9,5,-4,6,-3,-9,21,13
1622149985493080,-12,-28,-1,-7,12,-3,-19,-12
1622149985493080,14,21,6,0,-4,7,-1,-1
1622149985508160,3,-13,-7,-5,-24,-11,-15,-10
1622149985508160,-5,7,3,-2,4,14,5,8
1622149985516276,3,9,0,15,11,-15,-6,0
1622149985516276,-5,-8,-6,-17,-4,0,-8,-24
1622149985530951,2,-8,4,9,14,-5,24,27
1622149985530951,-2,-2,-14,-13,-12,32,12,7
1622149985531861,-1,9,17,12,7,-29,9,13
1622149985531861,1,-5,-6,-5,-30,1,-25,-11
1622149985545632,-3,8,3,12,17,23,15,2
1622149985545632,5,-3,-9,10,-11,-53,-23,-1
1622149985552856,-5,-27,1,-4,5,22,0,-22
1622149985552856,17,31,3,-4,-4,-10,26,29
1622149985568077,-12,-10,-6,-5,-21,3,-30,-12
1622149985568077,1,1,2,-3,1,11,-14,-7
1622149985576332,-3,-10,-7,-4,-1,-16,-3,-3
1622149985576332,-14,-5,0,-12,-30,-7,-33,-36
1622149985591027,5,-12,-9,-3,11,-8,-11,-26
1622149985591027,-2,16,9,-4,10,4,15,14
1622149985592025,5,7,-2,0,-18,-10,16,19
1622149985592025,-9,-11,1,7,28,12,-29,-29
1622149985605056,8,12,-5,-4,-21,17,31,31
1622149985605056,-1,14,2,-11,-35,-23,-29,-10
1622149985613076,1,-2,-5,-6,-8,15,27,0
1622149985613076,3,-2,3,1,27,5,5,19
1622149985628141,-2,-15,-6,0,12,-17,-5,-10
1622149985628141,8,-9,2,-2,-26,10,-4,13
1622149985636148,-4,39,-1,11,55,1,21,-8
1622149985636148,-1,-5,-9,-11,-46,8,-21,2
1622149985651196,-15,-10,-9,-5,29,15,2,-9
1622149985651196,-2,-8,22,9,2,-28,16,4
1622149985651196,6,17,-6,-11,-5,34,-23,0
1622149985651196,-5,-13,-6,7,6,-9,33,6
1622149985664866,2,10,5,1,-11,11,-20,-8
1622149985664866,-7,0,-11,-1,5,-5,5,14
1622149985673101,2,-16,-1,7,2,5,-12,5
1622149985673101,6,12,0,2,11,-1,2,3
1622149985687859,5,8,4,-5,-8,3,40,2
1622149985687859,-1,-7,-10,-3,34,-11,-22,-23
1622149985695625,-2,-16,5,-7,-29,9,-7,4
1622149985695625,-2,-9,0,8,14,4,6,3
1622149985711285,6,13,4,-1,-4,-30,-3,5
1622149985711285,-6,6,-2,0,8,34,5,-23
1622149985711285,-3,-14,-1,-7,-17,-24,5,7
1622149985711285,1,-11,-2,3,13,-14,-12,12
1622149985725593,0,18,-1,0,12,10,-23,-6
1622149985725593,6,7,-1,-3,13,33,24,-1
1622149985732860,-7,-17,-17,-23,0,-39,-25,-48
1622149985732860,-3,12,18,23,-11,10,-23,7
1622149985747865,-5,-16,1,5,12,-11,-30,-7
1622149985747865,3,6,-3,-5,30,4,16,-13
1622149985754874,-5,8,2,1,-10,8,42,4
1622149985754874,-4,-14,-5,0,-16,-27,-18,-4
1622149985771229,-19,-2,-6,-3,29,13,-3,6
1622149985771229,3,-4,8,6,-13,-15,6,2
1622149985771229,-9,-19,-8,-10,0,-5,-24,-21
1622149985771229,3,40,8,3,9,7,12,11
1622149985786143,13,-5,6,-8,-17,16,20,20
1622149985786143,-5,12,1,10,14,-11,-39,-24
1622149985793124,9,-7,-3,4,2,-8,-15,8
1622149985793124,-1,-12,-9,-9,-6,17,9,49
1622149985807324,-2,-8,-1,1,-6,-15,49,-1
1622149985807324,1,-6,-5,-15,-18,13,-25,-5
1622149985815491,5,1,-3,5,-33,-5,4,23
1622149985815491,-14,-6,5,-9,-19,16,-1,-38
1622149985829867,21,11,-4,8,13,-14,10,11
1622149985829867,-19,-27,-8,-4,13,5,31,10
1622149985838867,6,28,8,3,-12,0,-35,-11
1622149985838867,-5,-27,-5,-3,4,4,20,-9
1622149985844979,-1,-12,-4,4,-27,9,-1,13
1622149985844979,-8,3,-2,-5,-14,-14,-9,-14
1622149985852957,-11,24,1,1,39,26,12,13
1622149985852957,1,-13,-7,-11,-17,-16,5,-4
1622149985876327,3,7,0,-4,-5,-32,-18,-3
1622149985876327,9,-10,0,-3,-18,22,-5,-2
1622149985876327,-1,0,3,9,37,-4,12,26
1622149985876327,0,6,-6,-9,5,12,-21,-11
1622149985889834,-5,-12,3,-6,-23,-24,-1,-10
1622149985889834,-14,22,2,-3,-38,-25,-21,0
1622149985897863,8,-4,-1,11,40,21,20,-9
1622149985897863,7,-7,-2,22,5,5,13,0
1622149985904920,12,21,1,-10,4,10,22,0
1622149985904920,2,-7,-1,1,-12,-34,-40,-7
1622149985913109,-6,4,-1,-6,8,7,-5,-6
1622149985913109,-8,-5,-6,-7,-34,-14,11,-3
1622149985928079,2,1,-4,5,14,-3,-8,-16
1622149985928079,-5,-28,5,-1,25,-1,3,13
1622149985935070,-13,-5,7,0,-51,-13,9,16
1622149985935070,6,-8,-1,-3,31,-4,12,2
1622149985950051,-4,13,4,7,8,17,-11,-7
1622149985950051,10,3,-5,2,-16,3,-8,-44
1622149985958004,-4,-23,-4,-1,-1,-30,-32,2
1622149985958004,-3,14,0,-5,9,7,-3,9
1622149985964985,0,-22,3,-7,-4,-4,16,4
1622149985964985,7,17,2,10,0,0,-2,8
1622149985973067,0,5,5,0,6,1,23,1
1622149985973067,2,-2,-7,2,-38,5,-15,-14
1622149985996009,2,-35,-12,-11,-5,-15,-8,11
1622149985996009,-36,10,2,2,15,17,25,-7
1622149985996899,25,57,4,-2,-4,-19,11,17
1622149985996899,-11,-5,5,-2,-14,-25,-7,2
1622149986009888,1,-15,-3,7,6,15,-22,-11
1622149986009888,5,5,-2,-5,-9,-7,29,14
1622149986018372,-9,-32,-8,-4,0,-6,-31,-21
1622149986018372,4,29,12,1,43,4,-5,-9
1622149986033910,-6,11,-4,-14,-30,1,-12,-20
1622149986033910,13,-14,-6,7,-13,11,25,27
1622149986033910,-5,-1,-5,-4,31,1,30,-15
1622149986033910,-8,-7,-1,-1,-1,10,-34,-5
1622149986047877,-2,4,0,4,-9,-4,-20,-34
1622149986047877,-10,-20,-2,-4,1,-3,-23,-8
1622149986055689,8,29,2,0,-2,-11,-8,2
1622149986055689,-4,-17,-2,-5,2,-7,23,8
1622149986070705,7,20,7,5,-2,29,-9,5
1622149986070705,8,-4,-4,1,11,-7,-5,5
1622149986078867,-10,-28,-2,8,-10,7,4,4
1622149986078867,-4,8,-3,-7,-6,33,-11,-11
1622149986093058,-5,7,-2,4,8,-10,-11,15
1622149986093058,9,6,-4,-7,30,-9,4,8
1622149986094029,-6,-30,1,-5,-33,3,18,-11
1622149986094029,8,9,0,9,2,5,40,23
1622149986108120,-13,-17,-8,-16,-3,9,-23,-13
1622149986108120,7,18,3,9,25,8,-1,15
1622149986114887,-1,-20,-5,-7,16,21,-8,3
1622149986114887,-3,11,3,-7,-6,-19,7,0
1622149986129859,4,-17,-4,0,-60,-20,13,-18
1622149986129859,5,20,11,3,11,8,-8,20
1622149986138838,-7,-6,1,-3,-28,-11,8,3
1622149986138838,-7,-15,-2,8,25,12,-11,-4
1622149986153877,-6,15,-4,-9,7,-29,-17,5
1622149986153877,6,-16,-7,-4,-24,3,-29,-42
1622149986154847,-9,10,2,3,-4,15,69,33
1622149986154847,29,-1,-1,-4,-19,-23,-49,-22
1622149986168158,-21,11,0,-7,26,8,55,12
1622149986168158,-15,-25,-4,-4,-34,0,-11,-5
1622149986175658,7,24,-1,8,1,1,-30,-4
1622149986175658,4,-11,-6,-1,16,16,29,-4
1622149986189822,15,-5,8,4,-6,-18,-27,10
1622149986189822,-3,13,-3,0,1,7,27,6
1622149986197852,-9,-14,0,1,29,-12,-28,-33
1622149986197852,0,4,-8,-6,-28,13,-11,10
1622149986213475,-2,3,-6,8,37,-3,7,6
1622149986213475,11,-19,13,5,-41,-6,1,4
1622149986214403,1,25,8,-8,27,23,-1,-2
1622149986214403,-1,-11,-4,4,-11,-21,-37,-11
1622149986228111,10,16,0,0,-13,6,28,-11
1622149986228111,4,-3,-6,1,45,23,20,20
1622149986234907,10,-14,-2,2,-59,-20,-6,-11
1622149986234907,-14,18,0,-4,26,11,23,16
1622149986249867,-3,-9,0,4,11,8,9,7
1622149986249867,-5,8,3,-3,-5,-21,-59,-18
1622149986258818,3,-27,-9,-8,-16,32,24,8
1622149986258818,12,0,2,-3,-1,-12,7,-25
1622149986273903,-11,13,8,8,3,5,8,30
1622149986273903,-4,16,-3,7,34,-22,13,-9
1622149986274902,-4,-5,-7,-4,-6,8,-36,-3
1622149986274902,1,-18,-7,-15,-34,-12,-1,-43
1622149986288219,0,14,1,3,9,17,-12,27
1622149986288219,6,2,-5,-4,-8,-31,31,1
1622149986295682,-10,-16,6,-2,15,3,-7,8
1622149986295682,-4,-4,-3,-2,12,12,20,-7
1622149986311348,2,-1,5,14,-9,13,-18,-9
1622149986311348,-4,-6,-5,-10,10,-12,19,3
1622149986318789,5,5,3,15,-13,-14,-23,-5
1622149986318789,-13,-13,-4,-11,38,30,-27,4
1622149986333863,-13,1,-1,-5,-27,-2,22,7
1622149986333863,-4,-20,1,5,-37,-23,-38,-38
1622149986333863,-3,24,-3,-9,55,0,11,-5
1622149986333863,3,7,3,13,-13,10,35,20
1622149986347870,7,-12,-8,-2,24,7,-34,-10
1622149986347870,-5,-17,0,2,12,-16,-4,0
1622149986354959,2,25,5,-3,-61,-9,-3,-7
1622149986354959,-6,14,1,0,13,-18,1,5
1622149986370549,11,-14,-12,-2,-1,-12,31,5
1622149986370549,-3,-17,9,-13,-11,41,-8,3
1622149986378876,-6,-5,-10,0,58,-39,-16,-1
1622149986378876,-3,2,5,8,-56,0,20,8
1622149986393877,-2,-13,-5,-11,-14,-16,-17,-2
1622149986393877,-5,11,1,2,-17,24,-31,-40
1622149986394596,2,-10,-3,4,5,-7,9,34
1622149986394596,15,-18,-5,-8,12,12,30,1
1622149986408192,-18,20,8,2,14,-30,-60,-9
1622149986408192,1,-3,-7,-5,5,-7,17,-24
1622149986414900,-6,-4,-1,11,-1,42,17,5
1622149986414900,-5,-6,-7,-14,11,-59,-6,4
1622149986429799,6,-2,-1,7,4,27,-12,-1
1622149986429799,15,21,5,0,-6,-16,-15,19
1622149986438782,-1,-11,-11,-10,-8,-7,13,-14
1622149986438782,-10,-5,4,13,5,17,-5,9
1622149986453740,8,8,3,-5,1,-13,13,-23
1622149986453740,-16,4,-8,-8,-29,-13,-25,16
1622149986453740,8,1,-2,16,13,7,-2,-1
1622149986453740,6,10,10,-11,-21,24,35,13
1622149986467701,-4,-22,0,1,10,-6,-32,-31
1622149986467701,11,37,-3,-5,-8,3,32,18
1622149986475673,-7,-12,-14,-18,-5,-24,-25,0
1622149986475673,-1,1,7,7,31,13,-5,2
1622149986490299,10,5,5,1,-25,-8,-17,7
1622149986490299,-7,-9,1,-6,13,18,63,18
1622149986498227,-8,-14,-7,-5,22,-37,-33,11
1622149986498227,-13,9,-7,0,8,4,-9,1
1622149986513884,3,4,-1,-6,-15,4,11,7
1622149986513884,-4,-10,0,-3,15,-3,-20,-16
1622149986513884,8,9,3,3,-38,9,-4,-5
1622149986513884,0,-6,5,1,5,-11,-27,-3
1622149986528079,0,-5,2,6,36,-11,37,7
1622149986528079,2,2,-6,1,-26,7,-9,14
1622149986535067,-1,-10,-7,-9,-10,7,15,-47
1622149986535067,1,-9,-1,3,-32,-10,-23,17
1622149986550229,6,42,13,1,3,17,27,-1
1622149986550229,3,-19,-1,18,22,0,-3,6
1622149986558884,-5,14,-1,-5,5,5,-4,7
1622149986558884,9,-9,-13,-4,-27,-3,-29,-30
1622149986573899,-3,-12,0,-3,-17,-7,17,29
1622149986573899,-16,-14,-4,-7,-37,-10,18,3
1622149986573899,0,2,7,5,7,17,14,2
1622149986573899,5,-1,-6,-9,-8,-21,-3,3
1622149986587868,-13,-24,-4,-6,-6,19,17,-2
1622149986587868,15,33,4,2,22,-8,-50,-9
1622149986595675,-10,-23,-1,10,-25,-21,8,-9
1622149986595675,-16,10,2,-2,54,7,-13,-4
1622149986609869,7,4,-12,-9,-23,-14,29,26
1622149986609869,-10,3,-7,-9,-32,-7,-10,-6
1622149986618883,17,3,5,4,0,3,6,12
1622149986618883,-9,-11,-4,7,19,-7,8,-10
1622149986632952,0,-4,-2,3,24,6,-30,-8
1622149986632952,1,1,3,1,32,10,8,-3
1622149986633858,-11,-10,-3,-14,-69,0,-13,4
1622149986633858,5,9,3,6,14,-28,-27,-4
1622149986647895,-2,-3,-3,6,-11,3,30,-5
1622149986647895,2,-7,-4,-2,5,-20,26,22
1622149986654905,5,-26,-1,2,41,22,-35,-48
1622149986654905,-8,5,-3,-16,-54,-2,9,11
1622149986670534,-9,-2,-6,14,7,-13,13,15
1622149986670534,0,-2,8,-5,3,-1,-25,-32
1622149986678877,-5,2,0,10,15,-24,5,22
1622149986678877,11,-22,-6,-13,-11,6,0,-8
1622149986693867,-5,6,3,-2,-9,-11,-24,-7
1622149986693867,1,1,-3,-8,-15,25,37,19
1622149986693867,4,9,5,2,-9,10,31,8
1622149986693867,-1,6,3,10,14,-16,-29,-4
1622149986708249,-1,-12,0,-8,20,21,-14,-13
1622149986708249,1,-3,-2,-4,1,-4,33,-6
1622149986715232,-1,19,1,-10,-40,-2,-24,-10
1622149986715232,-5,7,-1,6,11,1,30,8
1622149986730129,3,-11,-6,-15,-23,-6,-33,-34
1622149986730129,1,23,8,7,17,7,-37,0
1622149986738868,2,-4,0,-1,-3,10,50,-12
1622149986738868,1,-3,-1,2,9,-13,13,-1
1622149986753074,13,0,-6,-4,6,1,-13,-2
1622149986753074,-20,-20,-3,2,-6,10,4,16
1622149986761356,-6,-5,-7,-14,7,8,-19,-17
1622149986761356,3,20,2,8,-1,12,36,7
1622149986768191,-7,-12,5,10,2,-22,-58,-1
1622149986768191,13,14,-9,-8,24,14,12,-2
1622149986774966,0,-3,11,8,-32,-16,-8,4
1622149986774966,-12,-19,-6,5,48,14,19,8
1622149986789860,6,14,8,6,-49,10,15,-2
1622149986789860,14,4,-5,-7,15,-11,-3,-5
1622149986798857,-10,16,-5,-9,41,33,-18,18
1622149986798857,-1,-7,3,-1,-24,-11,7,-5
1622149986813151,-8,15,9,7,28,1,-8,3
1622149986813151,-6,-22,-3,-3,-28,1,14,18
1622149986820919,5,-1,-3,-6,27,4,-3,2
1622149986820919,4,14,-5,-9,-13,-2,-19,-4
1622149986828189,13,-11,-3,2,-9,18,18,15
1622149986828189,-28,0,-2,-1,21,-11,0,-32
1622149986835648,8,-2,-3,-10,-28,-6,-27,23
1622149986835648,-1,-20,-6,21,-20,4,-14,-26
1622149986850275,2,20,0,-15,11,22,-13,-21
1622149986850275,1,-21,-1,5,3,-51,12,3
1622149986858845,5,33,10,12,5,8,5,2
1622149986858845,1,-15,-4,-17,-7,0,-29,7
1622149986873152,1,6,-2,-4,42,0,55,2
1622149986873152,8,-1,-5,8,-46,2,-42,-3
1622149986880835,-5,-15,-3,-7,18,-11,10,17
1622149986880835,1,8,6,6,1,11,18,0
1622149986887842,-3,-9,-9,-6,-21,-19,-24,-4
1622149986887842,3,-11,9,-3,-8,24,25,36
1622149986895619,2,13,-3,7,35,-8,-21,-24
1622149986895619,-2,2,-9,-22,-40,9,6,0
1622149986909844,-6,-25,-7,-4,-30,-6,2,9
1622149986909844,-18,7,14,24,33,31,-2,-5
1622149986918869,-3,-35,-9,-3,-34,-24,-13,-13
1622149986918869,-1,21,5,-7,5,-2,-28,-7
1622149986932410,1,-12,-7,-12,4,-4,1,-9
1622149986932410,9,16,-5,4,1,18,4,0
1622149986941483,-11,1,-2,-4,-5,5,-17,-15
1622149986941483,-3,-14,1,6,23,-1,15,2
1622149986956369,-1,-15,-9,0,-19,-31,-29,-17
1622149986956369,-1,-1,0,7,18,26,52,36
1622149986956369,4,14,-3,-6,-42,-32,-3,11
1622149986956369,7,-2,-1,-2,54,17,22,1
1622149986970624,-8,3,3,1,-22,-44,-26,-7
1622149986970624,-1,-23,-12,-16,0,5,5,-6
1622149986986420,6,15,-2,6,-4,-18,-2,-6
1622149986986420,-11,-11,6,-4,-12,-14,-1,3
1622149986992430,0,10,1,8,16,19,48,6
1622149986992430,0,-3,-3,-11,-13,-4,-55,-11
1622149987001364,24,-23,-6,5,-25,-5,9,2
1622149987001364,-27,8,-2,-5,8,-6,-2,-5
1622149987015453,-6,-22,-1,8,20,12,-7,-36
1622149987015453,-3,17,-11,-18,-18,-28,-6,-34
1622149987016429,4,5,4,-1,24,14,7,21
1622149987016429,10,2,0,9,-5,0,-15,-19
1622149987029877,-10,-2,10,2,0,0,17,26
1622149987029877,-2,-8,-5,-15,22,-1,-36,-8
1622149987038190,-3,8,1,3,-28,23,12,-35
1622149987038190,1,2,-3,-8,-6,-21,21,2
1622149987052887,1,4,1,11,32,-8,-14,4
1622149987052887,4,11,3,2,-56,-12,15,-1
1622149987061392,-11,-19,-4,-7,19,11,25,10
1622149987061392,21,18,5,5,-17,-5,-2,16
1622149987076416,-10,-2,-5,-10,-3,16,-25,-22
1622149987076416,-10,-13,-2,1,15,-19,2,4
1622149987076416,6,34,5,20,49,19,36,0
1622149987076416,1,-9,-5,0,-30,-19,-45,-6
1622149987089841,5,1,-4,-15,-2,1,21,33
1622149987089841,-15,-16,-10,-12,20,5,-30,-13
1622149987097866,-5,17,2,-6,-28,-65,-1,-15
1622149987097866,-7,-9,7,9,57,1,9,13
1622149987113192,1,19,-5,-6,-62,23,14,-4
1622149987113192,4,-5,-2,7,-2,-13,-5,-2
1622149987121383,7,-17,-1,-4,5,-12,-46,12
1622149987121383,-12,-10,-2,-4,-8,30,50,-44
1622149987135824,-6,-3,-1,0,7,-16,-8,12
1622149987135824,10,13,-1,-4,36,16,15,6
1622149987136819,-3,-4,2,16,-29,-5,-25,-8
1622149987136819,1,-7,3,0,24,4,14,40
1622149987149869,-8,5,-17,-11,-29,2,-27,-28
1622149987149869,4,-18,12,5,10,-3,10,24
1622149987158246,16,16,-1,-5,-21,25,17,14
1622149987158246,-12,-12,-13,-13,-13,-1,-10,-20
1622149987173207,-10,-7,17,16,13,-20,5,-4
1622149987173207,3,12,-5,-13,-4,-1,7,2
1622149987180865,-7,-16,-4,2,15,-5,0,3
1622149987180865,6,6,1,6,-15,14,-4,-13
1622149987195893,21,1,-4,-7,-4,-7,-15,15
1622149987195893,-24,-14,1,12,36,-3,-6,-11
1622149987196892,-9,0,1,-20,-15,11,1,-3
1622149987196892,6,13,-3,-9,2,-1,-21,9
1622149987209878,3,-16,4,10,-18,-20,14,3
1622149987209878,2,20,2,1,-21,-6,-1,8
1622149987217426,4,-11,-10,-20,-7,-3,1,-4
1622149987217426,-6,1,2,15,-5,-12,-56,8
1622149987232683,-4,-5,1,-7,25,18,12,-23
1622149987232683,11,2,-5,11,-10,17,19,20
1622149987241383,-9,2,4,-7,5,-1,-17,-4
1622149987241383,9,3,0,1,-17,-12,6,3
1622149987255645,-10,-16,-6,-3,31,-6,-17,-33
1622149987255645,8,10,10,-3,-13,18,14,-2
1622149987256642,-6,-4,-3,6,29,19,-6,-4
1622149987256642,0,-8,-2,-11,1,6,-4,-1
1622149987269923,3,24,3,7,9,-4,1,19
1622149987269923,7,-6,4,0,21,-18,12,-12
1622149987278218,-9,-6,2,21,-28,-10,20,6
1622149987278218,0,-6,-5,-7,7,19,-12,-3
1622149987292862,-3,3,1,-4,7,30,60,22
1622149987292862,3,-2,-2,0,-27,-65,-84,-31
1622149987301397,-4,-2,2,-6,22,2,21,11
1622149987301397,-9,-5,-4,-6,2,5,21,-11
1622149987315817,-14,9,4,16,-1,3,-4,41
1622149987315817,4,-3,-3,-6,-10,-2,19,0
1622149987316814,-5,-5,1,3,29,-3,10,0
1622149987316814,8,-9,-4,1,-22,-18,-4,9
1622149987329803,16,19,0,-7,12,-3,-35,-8
1622149987329803,-10,-5,-3,-3,-8,15,15,-3
1622149987337818,2,-2,-2,0,-1,-28,-18,-1
1622149987337818,-1,21,3,-3,6,13,20,11
1622149987352781,8,-27,-4,-2,-23,-25,-48,-7
1622149987352781,-17,19,-7,-2,3,31,61,3
1622149987360751,2,-12,-3,3,19,2,-25,-27
1622149987360751,1,6,12,4,-30,-17,10,12
1622149987375709,-5,-11,-14,0,20,-3,24,-17
1622149987375709,7,3,13,4,-29,-31,-24,-1
1622149987382908,-8,-10,-5,-8,22,13,-3,-24
1622149987382908,-7,-12,-2,5,18,-8,12,18
1622149987389865,0,21,-1,-4,-20,10,-2,-13
1622149987389865,3,-7,-3,-5,22,4,-9,6
1622149987397883,-2,-5,-6,-3,-25,-4,7,-4
1622149987397883,13,1,0,-3,9,1,-9,-8
1622149987413153,-25,-25,-6,-5,-15,1,-2,5
1622149987413153,1,35,1,4,28,-17,-69,-28
1622149987421303,-3,6,8,-4,-50,27,13,15
1622149987421303,2,-9,-7,-4,3,14,15,-24
1622149987435822,11,4,7,-5,7,20,-20,-7
1622149987435822,-8,-15,-7,-8,-23,-15,9,13
1622149987436797,-2,-6,2,5,26,-7,10,11
1622149987436797,-3,8,-2,-9,-24,-4,-17,-11
1622149987450758,2,-4,-1,1,4,-14,2,-4
1622149987450758,-4,-15,-10,0,4,14,16,9
1622149987457770,-7,-4,11,-2,-12,-3,-22,3
1622149987457770,-2,-18,-4,16,-6,-9,-3,-14
1622149987472764,3,19,0,-15,24,2,12,14
1622149987472764,0,-14,-6,-10,-41,26,37,-2
1622149987480985,-4,11,-9,-8,1,-31,-14,13
1622149987480985,1,-6,0,5,29,18,4,-6
1622149987495834,-1,-7,2,-4,-41,-3,-5,-1
1622149987495834,5,-5,1,10,32,5,-5,1
1622149987496821,11,2,-4,3,-1,-7,-1,-4
1622149987496821,-25,-8,-2,-1,-26,4,-1,-2
1622149987509800,0,9,7,12,-1,-7,-17,-6
1622149987509800,-3,-18,-4,-6,-14,-14,25,5
1622149987517779,3,8,0,4,5,33,-30,0
1622149987517779,9,14,-8,-6,34,-48,-7,13
1622149987532797,6,-4,-1,-10,-39,13,28,-5
1622149987532797,5,-4,0,11,-2,-15,-20,38
1622149987541771,-13,-14,15,0,3,7,24,-27
1622149987541771,1,11,-4,-2,-18,10,-13,26
1622149987555757,-4,-8,-2,6,20,-30,-13,6
1622149987555757,13,0,-3,0,-6,10,1,-4
1622149987556729,1,6,-11,-7,25,12,45,6
1622149987556729,-2,-1,0,-8,-64,-13,2,-4
1622149987570718,-6,1,5,2,5,8,13,-12
1622149987570718,5,-5,2,4,-11,-20,-51,-1
1622149987578233,-12,-7,-5,5,40,15,13,3
1622149987578233,13,-1,2,0,10,-21,5,2
1622149987592791,1,-10,-2,-5,-2,-7,-16,-29
1622149987592791,-20,10,-1,-9,-14,16,-1,-4
1622149987601339,11,-2,0,-1,7,7,49,7
1622149987601339,4,7,3,12,9,-39,-16,0
1622149987615835,-7,-5,1,-7,1,13,-31,-43
1622149987615835,0,-22,2,-2,-9,-13,8,8
1622149987616833,3,5,-7,6,-10,-10,-2,21
1622149987616833,3,21,3,-1,14,6,-20,-16
1622149987629803,8,-8,-3,-1,21,1,11,19
1622149987629803,-11,4,1,4,-1,15,11,-17
1622149987637813,-3,-12,-5,-8,-29,-45,-34,7
1622149987637813,-9,-11,-7,-13,6,28,38,-1
1622149987661749,4,20,0,-6,10,-8,9,28
1622149987661749,3,-4,4,13,2,13,14,4
1622149987662747,4,7,0,-2,-2,3,-6,-5
1622149987662747,2,20,1,6,17,16,-15,-15
1622149987676415,-6,-7,-3,-6,-52,-23,14,-8
1622149987676415,3,1,-6,-10,3,11,-11,30
1622149987676415,-6,-19,-6,-3,-2,-1,-16,-21
1622149987676415,5,-25,3,13,-7,-1,5,-22
1622149987689881,-22,38,-4,-14,4,6,11,31
1622149987689881,10,5,0,10,11,0,8,-8
1622149987697906,2,-5,4,1,-1,-13,-18,1
1622149987697906,-9,-8,-2,-10,-23,13,-15,5
1622149987712428,-1,-42,-16,-3,16,-11,-7,-10
1622149987712428,1,28,9,-7,8,4,13,-13
1622149987721356,-2,10,-1,-1,-52,1,-3,-13
1622149987721356,0,-14,-5,-9,11,-7,-3,16
1622149987734867,-10,-24,-3,15,30,-2,-3,5
1622149987734867,-6,8,-5,-15,-22,-7,-31,-50
1622149987743861,-2,-14,2,4,10,14,33,5
1622149987743861,-4,2,-3,-10,-13,-13,-24,8
1622149987749849,6,13,0,13,16,11,4,4
1622149987749849,-7,-29,3,1,1,-2,9,-9
1622149987757832,-5,4,-6,0,12,-11,-5,25
1622149987757832,-9,8,-1,-2,-15,-9,-2,1
1622149987772813,16,58,6,-5,-25,53,7,-5
1622149987772813,-6,-24,-10,-2,0,-7,53,17
1622149987780832,13,16,12,12,14,7,-33,-22
1622149987780832,-6,-17,-4,-25,-3,9,39,16
1622149987794805,-3,-18,-6,11,33,-16,-32,5
1622149987794805,11,16,5,-3,-20,-32,15,11
1622149987803829,11,-6,1,9,-24,11,16,-5
1622149987803829,-12,11,3,-1,10,-8,-39,-10
1622149987809882,-9,-25,0,-15,-21,-15,31,-7
1622149987809882,14,25,-2,4,-48,17,-34,34
1622149987818223,-3,-11,-4,4,21,-16,21,3
1622149987818223,-4,-2,-1,8,16,10,39,-13
1622149987832960,-2,4,4,-7,-7,-4,-39,2
1622149987832960,-1,-9,-4,2,21,7,-36,-35
1622149987841442,-14,7,4,-5,5,13,-65,-4
1622149987841442,5,-9,-9,3,20,18,57,18
1622149987854879,4,4,1,-7,-23,-17,-8,1
1622149987854879,-8,2,-1,1,-2,0,7,-10
1622149987863876,-6,-5,1,-4,5,5,-7,-6
1622149987863876,-1,7,-7,-1,8,-23,-49,-9
1622149987878910,4,-4,6,17,-15,2,12,3
1622149987878910,-5,-3,0,-3,52,6,-24,-17
1622149987878910,2,-14,-7,0,-22,-20,3,0
1622149987878910,-8,-14,1,-11,-15,7,29,46
1622149987893036,3,-5,-5,7,14,1,3,-6
1622149987893036,-3,11,2,8,10,23,26,0
1622149987900772,-7,-6,3,-13,14,-36,-26,4
1622149987900772,12,-41,-2,1,-37,49,-31,-26
1622149987914858,-22,34,-7,3,7,-11,-6,-4
1622149987914858,9,1,10,3,28,-4,39,9
1622149987923903,-6,14,-1,-15,-14,-1,-18,-9
1622149987923903,17,10,8,20,-13,-37,4,9
1622149987938860,-3,-15,-17,-36,-22,20,6,2
1622149987938860,-9,-5,-1,11,-7,-2,-7,-4
1622149987938860,14,-1,0,-6,6,18,25,-1
1622149987938860,-12,28,1,1,-7,-27,-30,-13
1622149987952769,5,-20,7,15,12,23,12,5
1622149987952769,-6,13,-7,-15,6,-6,2,-1
1622149987961003,5,0,-4,-6,-15,-12,-6,25
1622149987961003,5,15,7,14,22,12,6,2
1622149987975716,1,-5,2,-17,-10,-6,0,-3
1622149987975716,-4,-7,-7,0,-16,21,-16,-9
1622149987983915,-9,-22,0,-8,12,-21,-2,4
1622149987983915,3,21,-5,2,0,16,15,-8
1622149987998041,3,0,3,1,13,-9,-13,1
1622149987998041,-1,-12,0,6,3,-4,-3,-4
1622149987999010,-5,-5,-9,-27,-51,3,2,-1
1622149987999010,12,-1,4,7,11,-6,-44,-4
1622149988013240,-12,-5,0,5,-7,-8,38,-9
1622149988013240,6,-6,-11,-2,0,-28,9,9
1622149988021457,-6,-9,-10,12,83,46,38,40
1622149988021457,-4,0,21,-3,-86,-28,0,-16
1622149988035708,15,6,6,-3,0,14,21,-14
1622149988035708,2,25,1,4,33,-36,-26,13
1622149988043813,0,2,-5,-2,-22,4,8,-9
1622149988043813,-1,-5,-11,-4,-5,7,5,5
1622149988058884,7,-9,-6,5,5,-9,5,15
1622149988058884,-9,-21,7,-3,-17,2,-21,-17
1622149988058884,6,14,3,-2,-28,-12,6,-9
1622149988058884,-9,3,-5,-8,34,4,1,-7
1622149988072923,-1,-10,2,11,14,-36,-24,0
1622149988072923,3,0,-5,-8,-46,33,-22,-3
1622149988080881,4,10,8,-1,16,-24,-3,-9
1622149988080881,-9,-16,-15,-6,4,8,16,-9
1622149988095741,6,10,3,-6,-9,-1,4,24
1622149988095741,-1,-10,4,-8,6,-6,8,3
1622149988103968,-8,3,1,8,12,15,-5,-13
1622149988103968,2,1,5,6,-6,-15,2,-8
1622149988118816,20,-9,-19,-6,19,46,-11,-10
1622149988118816,-19,4,16,-7,-8,-40,6,0
1622149988118816,-3,-27,1,13,-24,15,11,-2
1622149988118816,-2,73,-2,-15,24,2,12,1
1622149988132952,-4,-21,-4,14,7,-2,-21,2
1622149988132952,5,-17,1,-14,1,-11,16,-2
1622149988141407,1,24,2,10,-36,-8,-13,-2
1622149988141407,-8,-34,-6,-7,1,-12,-35,-17
1622149988155097,2,13,0,6,-14,30,38,5
1622149988155097,-4,-8,-5,-4,14,-4,-57,-6
1622149988163817,-7,-3,1,-4,8,1,15,4
1622149988163817,9,-11,2,5,27,2,27,4
1622149988178883,-20,3,-6,0,-41,-26,-2,-1
1622149988178883,2,-8,-8,-11,18,20,-8,-8
1622149988178883,-1,10,11,10,6,-3,-15,-11
1622149988178883,6,-2,-1,-16,-11,2,12,30
1622149988192832,-7,-9,5,16,52,1,-5,-39
1622149988192832,8,11,-11,6,-51,-11,8,28
1622149988200836,3,14,-5,-3,8,-2,-14,-39
1622149988200836,-6,-4,4,1,7,14,32,25
1622149988215853,-5,-10,-5,-22,-13,-14,-68,-24
1622149988215853,9,11,2,12,8,7,13,-2
1622149988223857,-11,-10,-5,-4,11,8,11,8
1622149988223857,-9,-1,9,7,4,6,2,-5
1622149988238819,3,10,1,6,0,-24,-7,-18
1622149988238819,1,-3,-6,-6,5,24,2,4
1622149988238819,3,-26,2,2,12,-16,-13,-5
1622149988238819,-2,7,0,8,-10,5,9,6
1622149988252776,-1,0,5,-2,-32,3,14,12
1622149988252776,-5,-3,-7,-22,33,-25,10,4
1622149988260756,-3,-11,-8,-3,-40,5,-5,-8
1622149988260756,-8,-20,-10,4,28,-6,-2,-9
1622149988274916,0,20,20,0,-3,18,-25,-2
1622149988274916,-7,-6,-4,-5,-22,6,59,3
1622149988283909,-2,-3,-13,4,32,15,-2,10
1622149988283909,0,-11,-5,9,-4,-29,-22,-7
1622149988297943,6,6,2,-15,-33,5,26,28
1622149988297943,7,16,1,17,33,-5,-34,6
1622149988298940,-16,3,-4,-18,-67,5,12,-15
1622149988298940,5,-23,0,-4,10,13,-8,11
1622149988313250,2,20,-2,-1,47,-7,12,7
1622149988313250,0,-2,3,7,-21,-2,-39,-3
1622149988321400,2,6,10,8,-13,-9,-9,-6
1622149988321400,-7,-18,-12,-5,19,13,12,-3
1622149988335844,-3,-4,0,-8,-41,0,-6,25
1622149988335844,5,-3,2,21,40,-7,22,-10
1622149988343826,5,-8,-7,-36,-16,11,-15,5
1622149988343826,-5,1,-4,-11,-10,-4,0,-25
1622149988358907,-6,-1,-4,6,20,-5,18,-25
1622149988358907,-4,6,6,11,-56,10,-26,-11
1622149988358907,0,8,-3,6,63,4,0,32
1622149988358907,17,6,6,-11,-12,9,23,7
1622149988374128,-14,-17,-13,-6,-18,-4,-17,-2
1622149988374128,12,12,7,16,-2,-13,-14,-12
1622149988379798,6,8,-3,-9,-2,-6,30,8
1622149988379798,-14,4,-3,-32,23,10,-31,11
1622149988395813,6,-7,4,23,-5,-10,9,9
1622149988395813,-10,-13,-7,-23,-21,-6,-14,6
1622149988403948,17,3,4,8,3,-8,11,7
1622149988403948,-8,11,0,9,-4,-7,-12,-9
1622149988418901,-5,-32,-9,-13,23,10,0,-1
1622149988418901,-12,43,10,6,28,20,22,-14
1622149988418901,5,-1,7,6,-42,-45,-17,15
1622149988418901,4,-7,-3,9,-5,-1,-23,-26
1622149988433096,1,-2,-3,-10,1,5,16,29
1622149988433096,13,-17,-9,-14,2,0,-13,-6
1622149988439978,-18,-7,9,26,41,-5,5,-9
1622149988439978,1,18,1,6,-36,-5,19,-3
1622149988455727,-2,-4,-7,-12,35,5,-4,20
1622149988455727,-6,-19,-5,0,12,-1,-8,-17
1622149988463516,5,28,0,-3,-26,16,1,-2
1622149988463516,1,-23,-2,-11,-5,-4,19,15
1622149988478015,2,12,4,20,13,-5,-9,-10
1622149988478015,-7,-23,-11,-42,-7,-2,23,7
1622149988479014,-5,-11,-7,2,16,9,5,0
1622149988479014,5,11,2,28,2,-33,-29,-9
1622149988495390,12,12,3,-23,-44,16,-23,-20
1622149988495390,-19,-11,-10,8,17,13,24,4
1622149988500375,-1,-8,2,-6,1,14,-31,-6
1622149988500375,5,-5,0,0,1,-12,25,10
1622149988515045,-8,9,-6,-1,29,5,4,-21
1622149988515045,7,0,10,13,-38,-27,-31,-20
1622149988523892,-5,-17,3,12,18,2,20,2
1622149988523892,2,-4,-4,-14,-12,5,-3,2
1622149988538892,1,5,-8,6,-7,-3,8,-8
1622149988538892,-7,-6,5,1,-9,-1,-7,4
1622149988538892,0,18,4,5,-37,-1,5,-5
1622149988538892,4,-30,-7,-1,22,3,-15,-5
1622149988552794,-5,30,5,-17,10,3,33,10
1622149988552794,8,-3,-8,20,-3,-33,4,18
1622149988560802,-3,-9,3,-10,-15,0,-9,-9
1622149988560802,-2,11,13,27,16,16,0,-10
1622149988575750,-6,-14,-17,-24,-6,-10,-18,17
1622149988575750,-2,9,6,2,4,4,-7,-31
1622149988583906,0,1,-6,1,27,2,7,-6
1622149988583906,-5,-1,-6,-13,-17,15,-8,12
1622149988597917,2,-16,5,-14,-44,-23,33,-12
1622149988597917,-4,8,-4,10,9,-4,-23,12
1622149988598946,-15,-21,-13,-17,-3,18,-24,3
1622149988598946,-1,29,6,0,13,-1,0,-10
1622149988613259,-1,1,-3,16,7,2,-13,4
1622149988613259,9,-3,3,-25,-29,-1,19,16
1622149988620008,3,-22,-12,9,3,-5,13,-10
1622149988620008,-18,26,4,-14,-2,-8,-42,4
1622149988634960,4,-13,0,13,6,-14,-6,-1
1622149988634960,-1,-13,-6,-11,33,4,-19,-8
1622149988651359,0,-3,1,-2,-53,-4,11,-30
1622149988651359,11,9,-3,-5,-17,-3,-2,-2
1622149988658317,-5,-2,1,1,-28,-9,-8,-5
1622149988658317,-5,-5,-9,6,1,10,1,19
1622149988666374,3,5,14,-5,16,-16,-26,1
1622149988666374,-5,-13,-9,15,-15,11,41,19
1622149988673233,1,-10,-4,-7,30,18,-14,-7
1622149988673233,-12,-7,4,-16,-39,-27,-6,-23
1622149988679859,12,38,1,-5,16,14,36,9
1622149988679859,22,5,-2,16,7,-27,-10,-1
1622149988695342,-25,-6,7,-9,3,4,-44,-5
1622149988695342,3,-10,-11,1,-23,7,3,-5
1622149988703880,-9,6,5,-2,29,8,2,10
1622149988703880,1,-23,-1,-13,-34,3,36,-9
1622149988718189,6,16,1,20,28,-26,-64,-14
1622149988718189,-9,-6,1,-2,1,28,58,14
1622149988725880,6,1,-3,2,5,-16,2,5
1622149988725880,-7,-13,-2,-11,-4,16,-17,9
1622149988732971,0,-24,-5,11,7,-8,-3,-28
1622149988732971,15,44,4,-6,10,2,14,10
1622149988739952,-5,-15,-8,-10,-3,-6,-23,-2
1622149988739952,-6,-4,0,4,-8,-6,0,2
1622149988755783,1,-18,5,-2,0,3,11,7
1622149988755783,2,18,0,6,8,1,0,-1
1622149988771405,-3,2,5,6,8,-26,-28,-14
1622149988771405,7,-1,-1,-9,-12,1,10,18
1622149988778205,-6,-14,-5,8,-24,-11,24,-9
1622149988778205,-8,-2,-3,5,20,14,6,5
1622149988786192,-10,-13,-11,-39,30,-3,-11,-1
1622149988786192,7,3,8,12,-61,-1,0,17
1622149988793188,7,15,6,19,21,3,6,-20
1622149988793188,4,-20,-1,-1,0,-6,-20,17
1622149988800175,-4,11,-10,6,-4,24,-1,-5
1622149988800175,7,-7,2,-14,24,-5,11,-8
1622149988815804,0,7,-6,1,-25,12,11,13
1622149988815804,-13,-2,4,-7,20,-12,3,-3
1622149988823846,5,-8,-11,-3,-17,-16,4,21
1622149988823846,-15,-17,1,9,41,4,-18,-57
1622149988837811,-1,11,5,-22,-38,12,18,16
1622149988837811,3,-9,-3,-4,8,-3,-35,-11
1622149988845794,-8,-3,-4,0,4,-4,17,10
1622149988845794,-3,-3,-7,-8,-28,3,10,4
1622149988860754,1,17,-4,5,44,-25,18,-8
1622149988860754,20,3,15,-4,-47,-2,-11,17
1622149988861726,-12,-18,0,7,5,0,-15,-12
1622149988861726,-1,6,-1,-4,-5,-2,-9,1
1622149988875786,-1,17,-3,5,21,6,-9,-38
1622149988875786,3,-14,-8,-11,-35,34,24,3
1622149988884815,9,6,1,11,14,8,-6,7
1622149988884815,-9,-1,-8,-10,-4,8,47,17
1622149988897832,-7,-4,7,-1,0,-10,-28,29
1622149988897832,-3,-9,-1,15,18,7,34,-23
1622149988906499,0,19,0,-2,-23,16,39,5
1622149988906499,-3,-8,-3,-1,48,-26,-39,-22
1622149988929580,2,-19,-6,-5,-23,4,-9,30
1622149988929580,-6,7,-6,5,4,-5,-11,5
1622149988929775,-13,-23,16,-5,-40,-14,9,-13
1622149988929775,8,29,-6,1,37,-6,-23,-26
1622149988935783,0,-5,-6,-13,-30,6,37,23
1622149988935783,10,30,18,17,20,0,-40,-10
1622149988943790,8,12,-11,-2,-9,-12,59,7
1622149988943790,6,-24,2,21,-2,-1,-77,0
1622149988958334,-7,23,3,-19,14,0,19,1
1622149988958334,-8,-9,-10,-13,-4,-14,-11,-6
1622149988966342,13,-6,5,12,5,2,-4,8
1622149988966342,-2,7,2,-2,19,27,51,12
1622149988981018,5,-4,1,3,-44,-7,-22,-27
1622149988981018,-7,-3,-11,2,-8,-10,-2,-4
1622149988982016,5,-6,-1,-22,13,-31,-66,-25
1622149988982016,1,3,-2,14,18,5,-1,19
1622149988995758,-7,-12,0,-6,-4,6,11,10
1622149988995758,-2,18,-1,3,23,-1,11,-19
1622149989003950,7,-1,-5,19,-10,-1,-41,-4
1622149989003950,-11,-12,-16,-46,17,16,0,1
1622149989017937,0,-2,8,15,13,-3,-6,1
1622149989017937,11,-4,-1,12,-27,-2,30,3
1622149989026508,-5,-7,8,-4,-8,-2,-58,0
1622149989026508,-9,-5,0,9,-36,-14,-13,-34
1622149989040921,10,26,-2,1,-28,4,30,43
1622149989040921,-8,-10,-6,-6,18,-7,-21,1
1622149989041851,0,7,11,4,-2,42,44,8
1622149989041851,3,4,4,13,11,-37,-20,-2
1622149989054839,-2,-25,-13,-20,10,19,-4,-3
1622149989054839,5,3,4,1,4,-3,1,12
1622149989063787,-8,-5,-14,4,-13,17,42,-1
1622149989063787,-4,-15,2,-14,-4,1,-30,4
1622149989078167,6,2,-4,0,8,-7,4,-12
1622149989078167,-6,-17,5,-4,5,-14,-16,20
1622149989086150,-1,-2,-7,-15,18,14,5,-7
1622149989086150,-11,23,0,8,-4,14,44,-8
1622149989101012,5,-10,0,7,6,-14,-34,11
1622149989101012,4,8,2,-22,-19,14,48,0
1622149989102012,-2,-6,0,13,9,-53,-97,-28
1622149989102012,0,-34,4,11,-1,28,41,1
1622149989115812,-16,40,2,-4,-10,-45,-9,-17
1622149989115812,1,-10,-12,0,-20,3,1,9
1622149989123977,2,-1,2,-12,-5,-1,28,-1
1622149989123977,0,-13,-5,-9,-11,-4,-39,-2
1622149989138018,7,0,4,8,20,-2,17,-8
1622149989138018,-13,-3,-2,-5,13,31,-11,-12
1622149989145856,2,-17,-5,15,0,-34,39,12
1622149989145856,-8,41,7,16,-12,4,-10,13
1622149989161261,-5,-21,-3,-18,-22,-6,-8,-6
1622149989161261,12,19,-2,6,24,-2,-1,-6
1622149989168910,-6,7,5,-21,7,4,3,8
1622149989168910,3,8,1,13,-10,12,14,35
1622149989175821,6,-21,-7,-10,-40,-5,15,12
1622149989175821,-5,5,3,-1,-7,-26,-21,-6
1622149989183995,6,19,-2,-1,23,11,5,-7
1622149989183995,-3,-1,1,-1,-21,2,-6,20
1622149989197873,3,-1,11,22,3,-24,-25,-8
1622149989197873,15,-28,-12,-12,16,41,51,4
1622149989206534,-29,10,-2,3,14,-4,-19,-4
1622149989206534,-1,-5,-2,-19,-40,-8,19,-7
1622149989221441,2,-2,-7,-17,-12,23,-4,-18
1622149989221441,-10,2,-3,7,29,-13,-13,8
1622149989221441,7,-4,13,3,-34,15,7,2
1622149989221441,1,7,-7,-2,3,-22,13,-1
1622149989235809,-1,-6,3,-3,30,3,-47,-44
1622149989235809,-14,-28,-8,-14,-55,-11,-3,-15
1622149989243887,3,17,-2,20,-4,18,35,14
1622149989243887,-1,-7,-1,-18,30,-23,9,-10
1622149989258291,5,-9,-6,5,-8,-1,9,18
1622149989258291,-11,8,9,23,14,-19,-42,-3
1622149989266434,1,-26,-9,1,9,32,6,-15
1622149989266434,8,15,-7,-33,-27,-16,9,31
1622149989280864,-2,13,-2,6,28,-29,0,14
1622149989280864,11,-12,4,13,-27,16,-4,-8
1622149989281861,-12,16,-2,-10,-9,-12,0,3
1622149989281861,-9,-21,5,14,14,17,2,-3
1622149989295876,9,8,-7,-10,33,0,23,9
1622149989295876,-7,4,-2,-6,16,-6,-11,-9
1622149989303873,7,-9,-5,11,-69,-10,-8,7
1622149989303873,0,-6,-10,-12,37,2,-15,-20
1622149989318332,2,19,15,5,-25,16,28,17
1622149989318332,-1,-4,1,-4,-8,-8,19,-15
1622149989326489,9,11,-4,-5,17,0,1,16
1622149989326489,-2,-8,0,7,-9,-7,-44,-16
1622149989340905,-1,-13,-2,6,20,4,26,-1
1622149989340905,1,-8,-5,-3,-2,21,-4,-14
1622149989341862,-2,1,4,-3,-4,-24,9,-3
1622149989341862,-8,-15,-5,-17,7,-9,11,-12
1622149989355090,9,22,1,7,21,23,-54,9
1622149989355090,-12,-18,-7,2,-14,-29,-6,-26
1622149989363813,9,11,1,-1,26,-5,-3,8
1622149989363813,-16,3,4,5,4,-3,10,-8
1622149989378315,3,19,5,-7,-46,-2,4,-7
1622149989378315,11,16,1,-5,-1,1,4,-2
1622149989386414,-1,-9,-9,-3,7,-6,-17,28
1622149989386414,11,12,12,23,22,0,6,-6
1622149989401389,-13,-30,-8,-34,-29,2,2,-1
1622149989401389,-4,7,-4,0,4,-11,-9,19
1622149989401389,-1,-3,-5,2,-4,5,-10,-19
1622149989401389,6,-6,7,15,3,16,15,-3
1622149989415864,-15,-19,-11,-28,-13,-18,-37,12
1622149989415864,2,12,2,6,16,16,30,26
1622149989423892,-8,-5,-9,-14,-13,2,15,-30
1622149989423892,-1,-2,-3,9,-15,5,-28,4
1622149989438256,5,-1,3,15,-11,11,-45,-9
1622149989438256,2,8,-2,-9,-1,-13,15,6
1622149989446237,2,-10,-9,-8,26,14,16,-1
1622149989446237,5,11,12,1,-27,-12,-10,32
1622149989461224,-19,-17,-5,-1,25,-10,7,-19
1622149989461224,-2,1,6,9,-2,-16,-21,10
1622149989462122,21,-15,0,-19,-29,-1,-12,-2
1622149989462122,-15,-4,-10,7,-2,-18,-2,-14
1622149989484690,0,-10,1,6,18,1,15,10
1622149989484690,-17,-11,-5,-15,12,12,8,12
1622149989484690,3,7,6,11,-17,-23,-7,1
1622149989484690,0,11,-12,-25,1,-10,-48,-21
1622149989498023,-4,-21,9,21,-6,12,60,20
1622149989498023,3,10,-9,-2,17,9,9,0
1622149989506449,-2,6,8,-14,15,4,13,4
1622149989506449,2,4,3,10,-15,-2,-17,-23
1622149989521465,-8,-23,-10,-20,-12,7,-24,-7
1622149989521465,4,0,0,4,-21,4,20,-4
1622149989521465,-10,2,-7,8,3,-24,-3,-7
1622149989521465,4,-5,3,-9,-4,13,-7,-6
1622149989535866,-2,9,1,11,18,-8,28,11
1622149989535866,-1,-11,-1,-13,-3,7,-57,-54
1622149989543848,5,13,-1,-3,-15,-11,-26,2
1622149989543848,-3,-13,-6,3,34,21,47,11
1622149989558343,-21,9,2,2,6,-40,-42,-11
1622149989558343,5,13,0,2,-21,-4,-4,15
1622149989565790,-7,-12,2,-12,-33,20,8,10
1622149989565790,8,-1,-7,-13,-18,-10,-12,0
1622149989580883,15,-1,-2,20,30,11,16,-1
1622149989580883,-17,-7,10,0,29,3,39,0
1622149989581880,6,9,-3,7,25,-14,-61,-20
1622149989581880,14,5,5,-11,-51,-4,54,20
1622149989595888,-1,11,1,4,-9,-1,-23,-6
1622149989595888,-11,-14,0,3,19,-12,-18,-36
1622149989603967,3,-3,-1,9,23,20,8,7
1622149989603967,-10,-17,-5,-11,-10,2,-2,-3
1622149989617784,4,27,12,15,-9,1,12,-4
1622149989617784,9,-10,-2,-2,14,-17,-7,15
1622149989626516,-8,-7,-3,8,-32,23,4,5
1622149989626516,7,7,-5,-7,21,-36,-8,-11
1622149989640885,-19,-14,-4,2,26,36,-13,-35
1622149989640885,9,13,-2,-10,-28,-28,15,45
1622149989648854,17,4,3,6,26,6,10,11
1622149989648854,-22,0,-2,-9,-13,-11,43,-5
1622149989655878,14,7,-9,-12,-36,-22,-17,16
1622149989655878,-7,-12,1,2,-14,6,19,-7
1622149989662423,-6,-1,-5,5,18,10,-2,-25
1622149989662423,8,-4,-1,11,27,-1,-24,16
1622149989678165,4,-5,8,-7,-28,0,15,13
1622149989678165,-2,2,0,9,-18,10,-10,-12
1622149989685828,-1,-12,-5,-20,15,-13,6,7
1622149989685828,-16,-3,-2,14,1,23,29,-2
1622149989699823,-9,2,-13,-11,-7,-10,-11,-17
1622149989699823,7,-7,5,-8,-33,-14,-16,7
1622149989709016,2,16,-4,-4,18,13,1,-20
1622149989709016,4,-4,-1,3,1,21,-5,-11
1622149989723938,-1,-14,-4,-1,-14,-28,2,40
1622149989723938,8,2,2,-10,18,-18,36,26
1622149989723938,-5,3,3,8,-16,5,13,-3
1622149989723938,3,10,-4,2,-2,-14,-35,-7
1622149989737813,6,4,-2,-2,-2,0,15,-10
1622149989737813,7,2,3,15,31,13,-25,0
1622149989745763,-19,-9,-3,-14,-16,-6,21,10
1622149989745763,-11,-4,6,11,10,12,-15,0
1622149989760749,1,-10,-9,-9,-9,14,29,-9
1622149989760749,1,13,1,12,23,9,20,1
1622149989768310,2,-11,-3,-15,2,-19,-36,-7
1622149989768310,4,6,2,2,-18,-7,-27,-9
1622149989783905,21,11,7,8,22,21,20,16
1622149989783905,-9,-1,-2,-2,-9,2,-23,-1
1622149989783905,-11,-35,0,16,-13,-22,15,-6
1622149989783905,8,28,-9,-26,5,-13,7,9
1622149989797907,5,8,5,3,19,12,-51,-17
1622149989797907,13,12,-1,-3,-33,6,18,3
1622149989806089,-11,5,2,2,22,2,-23,7
1622149989806089,15,-14,-13,-11,-44,-5,17,-11
1622149989820900,-18,16,21,6,-3,-14,-22,-20
1622149989820900,-7,-8,-3,24,26,10,-13,-6
1622149989829014,-6,-9,-6,-44,-21,-15,-10,0
1622149989829014,5,-3,2,27,22,6,-2,2
1622149989843957,2,-1,-8,-19,26,16,74,-15
1622149989843957,13,-3,-1,0,-39,-8,-25,42
1622149989843957,-14,0,10,22,9,-18,-13,-9
1622149989843957,3,-1,1,-1,19,5,-17,6
1622149989858231,-5,1,-5,9,21,16,-1,-21
1622149989858231,-10,-10,1,-3,-8,-28,14,-5
1622149989865806,12,-1,-20,-15,19,14,-4,4
1622149989865806,16,29,22,-3,-3,7,14,15
1622149989879861,-21,-8,-1,17,21,-7,-12,-3
1622149989879861,-8,-21,-9,-17,-14,-7,20,-18
1622149989888864,4,26,2,-1,-45,9,15,2
1622149989888864,-6,-1,-9,-2,26,-11,-1,-9
1622149989903851,1,-12,1,20,2,4,-12,3
1622149989903851,-16,12,-4,-13,-22,-12,-41,-18
1622149989903851,0,-8,-2,18,-1,14,45,6
1622149989903851,-6,-18,-6,-6,-28,-4,-23,-2
1622149989919872,13,7,12,19,8,-1,25,32
1622149989919872,-6,-2,-2,-23,-9,5,-50,-17
1622149989926533,3,2,8,12,-5,2,17,14
1622149989926533,-1,-3,1,-10,15,31,20,-16
1622149989939846,-4,-4,-6,4,-38,-53,-12,38
1622149989939846,-7,-11,-8,-8,17,-5,2,-16
1622149989948845,2,7,2,-14,-6,16,-27,-6
1622149989948845,-5,-11,-3,2,-22,-11,28,8
1622149989963960,7,-4,-5,-14,18,12,14,-21
1622149989963960,1,16,7,4,32,9,9,-4
1622149989963960,-1,-6,5,4,-9,-17,-16,-1
1622149989963960,-5,-21,-5,3,50,-16,-18,-9
1622149989977987,-4,4,-1,-9,-47,32,43,3
1622149989977987,4,-13,-2,-2,42,-9,-38,-24
1622149989986527,4,-2,-3,1,1,20,13,26
1622149989986527,-9,2,-3,4,-5,-15,-29,1
1622149989999989,5,-2,-4,-4,-12,-17,13,12
1622149989999989,-2,-5,4,21,33,-5,0,-5
1622149990009009,-2,-9,-1,-9,2,9,16,-34
1622149990009009,1,5,0,-12,-54,3,7,26
1622149990023872,-8,-5,-5,-11,-1,-14,-37,-7
1622149990023872,-4,2,-2,30,12,11,13,7
1622149990023872,-2,1,3,-10,-20,-23,20,-2
1622149990023872,3,20,1,-10,-5,2,-24,-6
1622149990038265,9,3,-1,-6,18,16,-34,-31
1622149990038265,7,-9,-2,-15,-29,11,25,8
1622149990046275,-8,-6,-2,22,68,-8,-55,9
1622149990046275,-11,-30,2,-2,-40,29,20,-15
1622149990060236,9,33,-6,-12,-37,-56,-3,-20
1622149990060236,-1,2,-2,-4,-20,-7,8,25
1622149990068190,-1,-15,-1,-8,-6,-7,-2,-5
1622149990068190,3,-5,0,13,26,-5,9,19
1622149990083816,-9,-23,0,3,23,15,-12,-16
1622149990083816,13,16,-16,-20,-73,-23,22,11
1622149990084843,-6,6,24,18,20,-2,-1,-17
1622149990084843,6,-13,0,3,4,-16,-9,13
1622149990097879,9,15,0,3,-2,22,43,9
1622149990097879,-22,-4,-6,-14,-6,-7,-51,-6
1622149990105963,-1,-11,-16,-7,-52,-3,62,16
1622149990105963,-1,2,7,-5,23,-26,-23,-15
1622149990120836,-5,-15,-2,1,-17,13,-3,-2
1622149990120836,8,10,2,18,31,3,-13,-18
1622149990129047,-3,0,-8,-10,2,1,11,0
1622149990129047,-7,25,-1,-2,14,11,-22,-5
1622149990143904,-4,4,-6,-10,9,-20,21,-3
1622149990143904,8,1,11,1,-23,7,0,-29
1622149990143904,-3,-6,-4,8,-9,14,-12,-3
1622149990143904,0,-5,-7,-1,16,-14,-1,18
1622149990158347,-6,-18,5,12,39,-1,-38,11
1622149990158347,-1,1,-5,-8,-43,31,67,-4
1622149990165729,12,8,19,12,19,-32,-47,-2
1622149990165729,-3,-4,-1,-6,-44,17,13,-10
1622149990179875,-5,-6,-2,-1,13,-8,-35,-13
1622149990179875,-10,-10,-2,8,42,6,32,9
1622149990189017,6,4,-8,-4,-9,8,9,-2
1622149990189017,1,-4,11,8,16,3,-3,-1
1622149990203953,-11,3,11,1,14,10,-1,4
1622149990203953,22,12,4,-5,-57,-26,4,21
1622149990203953,-15,7,-10,5,10,-19,-40,-17
1622149990203953,10,-16,0,-16,19,34,49,11
1622149990218066,-2,-12,-9,4,-11,1,9,1
1622149990218066,-1,18,4,-8,16,-7,-25,13
1622149990226482,1,-7,-7,4,10,-28,-26,-7
1622149990226482,-12,3,5,10,4,-8,21,-4
1622149990240878,0,-3,-3,-2,-11,10,-27,-1
1622149990240878,-2,-18,-9,-15,-19,-2,33,-2
1622149990248873,-2,-3,2,19,32,9,19,24
1622149990248873,2,15,-8,-18,-76,-10,-49,-41
1622149990263853,-1,-1,-1,2,21,8,-10,4
1622149990263853,1,-8,-3,4,21,-11,-3,-15
1622149990264777,-7,-5,-2,-8,-24,14,29,26
1622149990264777,-2,5,-8,4,18,-4,13,14
1622149990278366,0,-4,-2,-18,-7,9,3,-3
1622149990278366,-5,-10,-1,3,5,2,-26,-4
1622149990286508,12,-1,-8,19,5,2,7,-8
1622149990286508,0,0,-3,-6,20,0,5,1
1622149990300498,-5,-7,-5,-9,-9,-19,-20,3
1622149990300498,3,-1,-2,-9,13,13,1,-9
1622149990315559,0,11,4,-9,-13,10,26,3
1622149990315559,-3,-15,1,15,-25,-7,-37,-13
1622149990323889,4,27,-5,-9,-1,8,37,-2
1622149990323889,-6,-10,-1,0,-2,-6,-9,5
1622149990323889,0,7,11,3,-2,13,-10,-14
1622149990323889,-5,-4,-2,-8,6,1,-5,-4
1622149990337877,3,-7,-4,-3,8,11,16,13
1622149990337877,-12,0,1,-4,-44,-12,-44,-39
1622149990345770,-2,2,0,-2,1,-8,6,0
1622149990345770,2,4,3,4,15,7,24,8
1622149990360754,-2,-8,-2,-4,15,1,-23,-5
1622149990360754,3,5,1,12,-14,5,6,15
1622149990368708,-3,-7,-7,-14,-9,8,9,-7
1622149990368708,10,6,-4,9,-10,-4,3,-18
1622149990383983,-4,-1,-1,-8,-1,2,22,32
1622149990383983,-5,-1,2,17,20,-7,-19,-6
1622149990383983,22,3,0,-8,7,8,-2,0
1622149990383983,-22,4,-5,2,-4,-4,1,10
1622149990397928,-2,-10,-5,-1,-42,-14,-7,-11
1622149990397928,1,4,6,-4,25,18,10,8
1622149990406551,-6,-2,-4,-5,-13,-7,-10,-1
1622149990406551,6,3,-4,-4,9,-5,-3,-4
1622149990420928,4,3,4,5,0,-2,-13,-6
1622149990420928,6,3,4,18,28,-10,4,4
1622149990429011,-7,-5,-10,-38,-35,16,1,-9
1622149990429011,-3,-5,-1,4,25,-6,-8,-11
1622149990443936,-3,-2,2,6,-15,1,12,2
1622149990443936,5,1,1,1,45,8,9,10
1622149990443936,-5,1,0,7,-26,-13,-20,-13
1622149990443936,-1,-1,1,0,7,6,5,6
1622149990458393,1,-2,-3,-2,-5,-4,0,-4
1622149990458393,-6,-6,-5,-7,-11,0,5,1
1622149990466400,1,7,9,12,20,3,-1,5
1622149990466400,-5,-8,-6,-10,-29,-7,0,-9
1622149990480048,3,1,1,5,10,-4,2,-3
1622149990480048,-4,-4,-5,-11,-10,-2,-3,5
1622149990489001,-4,0,-3,-9,9,3,-3,-2
1622149990489001,2,0,0,2,2,18,-11,-21
1622149990503889,1,4,4,-2,-11,-15,18,33
1622149990503889,-7,-4,-5,-10,-31,8,-3,3
1622149990503889,1,0,-1,1,7,-5,2,-1
1622149990503889,2,1,-1,1,8,-4,0,2
1622149990527760,-1,-2,-3,0,3,-3,3,-15
1622149990527760,-3,1,3,1,-5,1,-6,-3
1622149990528764,-4,-3,-4,1,4,-11,1,4
1622149990528764,6,1,-6,-4,-5,-9,-1,10
1622149990540836,-2,1,6,5,-4,3,-4,-10
1622149990540836,1,1,0,-1,7,0,5,4
1622149990548809,-2,-4,-3,-1,6,-6,-6,-10
1622149990548809,-1,-3,-1,0,-3,-2,2,6
1622149990562743,0,0,0,-3,-7,-2,-6,-5
1622149990562743,-2,-3,-2,0,4,4,3,-4
1622149990570986,0,-1,-2,-2,6,-4,-6,0
1622149990570986,-2,-1,1,1,-11,-3,-2,6
1622149990578397,1,-1,-2,-1,-2,4,3,-3
1622149990578397,0,1,1,-2,6,-4,1,-6
1622149990585901,-2,0,0,2,-15,2,0,-8
1622149990585901,2,-3,0,-1,20,-3,8,44
1622149990600521,-1,-3,-2,-1,-10,-8,-25,-19
1622149990600521,0,-2,-4,-7,7,3,-1,-1
1622149990609038,1,1,1,6,-1,-4,-2,3
1622149990609038,-1,1,-1,-3,20,-4,0,-15
1622149990622436,0,-2,-2,0,-23,8,0,9
1622149990622436,-1,-1,1,1,-1,-3,-1,6
1622149990630861,1,-1,0,1,11,2,-3,-2
1622149990630861,-3,-1,0,-1,-1,-3,-1,-5
1622149990637867,-1,-1,-4,-2,-4,-3,-1,-2
1622149990637867,1,2,-8,-6,-14,-1,0,-6
1622149990645871,-3,0,4,-6,-11,-5,-1,-2
1622149990645871,-1,0,-1,-3,-21,-2,1,-1
1622149990660867,-3,-3,-4,7,41,3,-1,-5
1622149990660867,-2,-1,0,0,-1,-4,-1,-2
1622149990668939,1,0,-2,-2,-13,-1,1,7
1622149990668939,0,-3,-1,-8,-11,0,2,-1
1622149990683343,-2,-2,-3,1,9,-1,-2,-6
1622149990683343,-1,-1,-1,0,-2,1,-1,0
1622149990691560,2,-1,-1,2,-5,1,1,2
1622149990691560,0,-1,1,0,3,1,1,-4
1622149990698307,-1,0,1,11,10,1,-1,-3
1622149990698307,0,1,1,-1,-13,-1,-1,1
1622149990706546,-3,-2,-2,-12,2,-8,-3,4
1622149990706546,2,-2,-1,7,8,3,-1,-5
1622149990720840,1,0,2,-5,-1,9,8,4
1622149990720840,-3,-6,-1,2,-9,11,3,9
1622149990728981,2,1,-2,3,0,2,-15,6
1622149990728981,-3,-2,-1,-6,-14,1,4,0
1622149990742844,1,0,-2,-15,-21,-6,-1,1
1622149990742844,0,1,1,-3,4,1,0,-4
1622149990750750,-1,-1,-1,-1,19,7,2,-3
1622149990750750,-1,-3,-5,24,25,1,-4,-2
1622149990765735,-3,-4,1,-4,-20,-9,-3,-4
1622149990765735,-1,-1,2,1,5,-4,-1,-2
1622149990766732,-3,-1,-4,-8,-9,-8,1,-4
1622149990766732,0,1,1,-14,-17,-4,-2,-1
1622149990779893,0,0,-2,11,20,1,1,1
1622149990779893,-1,-5,-1,-1,-1,-3,-3,-4
1622149990788884,-2,0,-1,4,4,-1,3,-2
1622149990788884,-1,-1,-1,-2,-3,-6,-1,-2
1622149990802434,0,-1,-2,-5,-8,-4,-4,0
1622149990802434,-1,-1,3,3,4,0,1,1
1622149990811558,-2,-3,-3,-2,-1,-10,-5,-5
1622149990811558,-1,-1,-4,1,-5,-6,-2,-1
1622149990826515,2,1,0,-6,-7,-1,0,2
1622149990826515,0,-2,-5,-4,3,-5,-2,-3
1622149990826515,-3,-1,0,2,0,1,0,-1
1622149990826515,-2,-1,2,-1,-4,-3,-1,-3
1622149990840893,0,-3,1,5,0,-1,-1,0
1622149990840893,0,-1,-2,-2,3,-2,-1,-3
1622149990848909,4,1,-2,0,-1,-1,1,1
1622149990848909,-3,1,1,-3,-1,-1,-2,-1
1622149990863230,-3,-2,-1,-1,-3,-3,-3,-4
1622149990863230,0,0,-4,-4,1,-3,-1,0
1622149990871559,0,-3,1,-2,-2,-2,0,-2
1622149990871559,1,0,1,3,1,1,-1,0
1622149990886501,1,1,-4,-2,-3,-2,-1,1
1622149990886501,-2,-2,4,2,3,-1,0,0
1622149990886501,-1,1,2,1,0,0,-2,-1
1622149990886501,-2,-1,0,-1,-1,-2,2,-2
1622149990900854,-4,-3,-2,-3,-3,1,-1,-3
1622149990900854,-2,-1,-1,-2,1,0,-4,-3
1622149990908984,0,-3,-3,2,-1,4,4,-1
1622149990908984,1,1,-1,-2,-3,2,-1,0
1622149990923359,-1,0,0,-2,-3,-1,1,0
1622149990923359,0,-2,-2,2,0,0,0,-1
1622149990931085,-2,1,1,-2,-3,-6,-6,-1
1622149990931085,-2,-3,-3,0,-2,-1,1,-1
1622149990946508,1,1,-2,0,0,0,0,-1
1622149990946508,1,-1,0,-1,2,1,-1,0
1622149990947115,-1,-3,-2,-2,-2,2,1,-2
1622149990947115,-1,-1,-2,-2,-1,-2,-1,-1
1622149990960349,0,-3,-2,-2,-1,1,-4,0
1622149990960349,0,1,-2,-2,-1,-1,0,-1
1622149990969001,-2,0,-4,-3,-1,-2,-1,-2
1622149990969001,0,1,4,1,0,-2,0,-1
1622149990991973,-2,0,1,-1,-3,-2,0,-2
1622149990991973,-1,-1,-3,-1,-1,-2,-2,-2
1622149990992970,-1,-2,-1,0,-2,0,2,-1
1622149990992970,-1,-2,-2,0,0,0,-3,-1
1622149991005915,0,-2,1,-2,-2,-1,-1,-2
1622149991005915,1,-1,0,0,-1,-1,0,1
1622149991014387,-1,-1,-1,-1,-2,2,-1,-2
1622149991014387,-2,-3,-1,0,-1,-2,-2,-4
1622149991029456,-1,-1,-1,-1,0,-2,-1,-2
1622149991029456,0,-1,-1,-1,-2,0,-2,0
1622149991030456,-1,-1,1,0,1,-1,0,-1
1622149991030456,0,-2,-2,-2,-2,-4,-1,0
1622149991042838,-2,-1,-2,-3,-3,-1,2,-2
1622149991042838,-2,0,0,0,-1,-1,-2,-1
1622149991051874,-1,-1,1,-1,-1,-1,0,1
1622149991051874,-1,-2,0,0,0,-2,-2,0
1622149991065459,0,-1,0,-1,-1,-2,-2,-2
1622149991065459,0,-1,-2,0,-1,-4,1,-1
1622149991074027,1,-1,-1,-1,-1,-3,0,-1
1622149991074027,-1,-2,-3,-2,0,0,0,0
1622149991080859,-2,0,-1,-1,-1,-1,0,0
1622149991080859,0,-1,0,-3,0,0,0,0
1622149991089923,0,1,-1,0,-1,-2,0,-1
1622149991089923,0,-1,-1,-2,0,-1,-2,-2
1622149991112183,-1,-2,-1,2,-1,-3,-2,1
1622149991112183,-1,0,-2,-1,1,-2,-1,0
1622149991113342,-2,-1,-1,-2,0,-2,-2,0
1622149991113342,-1,-1,0,1,0,-1,0,-2
1622149991125879,0,-1,-1,0,-2,-2,-2,-2
1622149991125879,-1,-1,-1,0,0,1,0,-1
1622149991133949,-1,-2,-2,-3,-1,-1,-2,0
1622149991133949,-1,-1,-1,-1,-3,-3,0,-2
1622149991148961,-1,-1,-2,-1,0,0,1,0
1622149991148961,0,-3,-1,0,-1,-1,-2,1
1622149991150932,0,-1,0,-3,-2,-3,0,0
1622149991150932,-1,-1,-1,-1,-1,0,-3,-1
1622149991162931,-1,-2,1,-1,0,0,0,-2
1622149991162931,0,-1,-2,-2,0,0,-2,-1
1622149991172327,-2,0,0,1,-2,-1,-1,-1
1622149991172327,-2,0,-1,-1,1,0,1,-1
1622149991185823,-1,1,-1,0,-2,-1,-2,0
1622149991185823,-2,-1,-1,0,-1,-1,-1,-1
1622149991194892,-1,-1,-1,-1,-1,0,-8,-2
1622149991194892,-2,1,-1,0,-2,1,2,-1
1622149991200927,-2,-1,-2,-2,-2,-1,0,-1
1622149991200927,0,-1,0,-2,-1,1,2,0
1622149991209451,0,-2,-2,1,-1,0,0,-1
1622149991209451,-1,-1,0,-1,-2,0,-3,-1
1622149991223360,-1,0,-1,1,1,0,0,-2
1622149991223360,-1,-1,0,0,-2,-2,-2,-1
1622149991239775,1,0,-2,-1,0,0,-2,0
1622149991239775,-2,-2,-2,-4,-2,-3,0,0
1622149991245762,0,-2,0,0,-2,0,-2,1
1622149991245762,-1,-1,-2,-1,-1,-3,-2,-2
1622149991254762,0,-2,-1,1,-1,-2,2,-1
1622149991254762,0,-2,-1,-2,-1,-2,0,-1
1622149991260859,-2,0,-1,-1,-2,-1,-1,0
1622149991260859,-1,0,-1,-2,-2,-1,-2,-1
1622149991269854,-1,-2,-2,0,-1,1,-1,-1
1622149991269854,0,0,0,-2,1,-2,-2,-2
1622149991282934,-1,-2,1,0,-1,-3,-1,-1
1622149991282934,-1,1,0,0,2,0,1,0
1622149991292378,-2,-1,0,-3,-2,-2,-1,1
1622149991292378,1,-1,-1,-1,-1,0,-2,-1
1622149991305094,0,0,-2,-1,-1,-2,-2,-2
1622149991305094,0,0,-1,0,-1,-2,1,-2
1622149991314417,0,1,-1,-1,-1,-2,-1,-1
1622149991314417,-1,-1,0,0,-1,-1,-1,-1
1622149991320479,0,-1,-1,0,-1,-1,-1,1
1622149991320479,-1,-1,0,-1,-2,-1,0,0
1622149991329776,-1,-1,-2,0,0,-1,1,-1
1622149991329776,-1,-1,-1,-2,1,1,0,0
1622149991342771,-3,0,-1,-2,-1,-1,0,-2
1622149991342771,-1,-2,-2,-2,-1,-1,-2,-1
1622149991351807,-3,1,0,-2,1,-2,-2,-3
1622149991351807,-1,1,-1,1,-3,-1,-2,-1
1622149991365859,-2,0,-1,0,0,0,0,0
1622149991365859,-1,-2,-2,-2,-2,-1,-1,0
1622149991374859,1,-3,0,-2,0,-2,1,-1
1622149991374859,0,-1,-1,1,-2,0,0,0
1622149991380816,0,-1,-1,-2,-1,-1,-3,-2
1622149991380816,-2,-2,-1,0,-1,-1,1,-1
1622149991389790,-1,0,-1,-1,-1,1,-1,0
1622149991389790,-2,-1,-1,-1,-1,-2,-1,-1
1622149991402792,2,0,-1,-2,-2,0,0,-1
1622149991402792,-1,-1,0,2,-2,-1,0,0
1622149991412328,-1,0,0,0,-2,-2,-2,-1
1622149991412328,-1,-1,-1,-1,-1,-1,0,0
1622149991425874,-1,-3,-2,-1,-3,0,-3,-1
1622149991425874,-1,-1,-3,-2,-1,-1,0,-2
1622149991434680,-1,-3,-2,0,-3,0,0,-1
1622149991434680,0,0,-2,-1,-1,-3,-1,0
1622149991440816,0,0,0,-1,-1,-1,0,0
1622149991440816,1,-1,1,-1,-1,-1,-2,0
1622149991449805,0,-1,0,0,0,-3,0,0
1622149991449805,-1,-1,-1,0,-1,1,-2,-1
1622149991462981,0,-1,-1,-2,-1,-3,-1,-1
1622149991462981,-1,-1,-1,-1,-1,-2,-1,0
1622149991472403,-3,-1,-2,-3,-1,0,-1,1
1622149991472403,0,1,-1,-1,-1,1,1,-1
1622149991485889,-1,-2,0,-2,-1,0,0,0
1622149991485889,-1,2,0,0,0,0,0,-1
1622149991494003,-2,-3,-1,-1,-1,0,-3,-1
1622149991494003,0,-2,-1,-3,-1,-2,-1,-2
1622149991500085,-3,-1,-1,-1,-2,-2,-1,-1
1622149991500085,-1,-1,-2,-2,0,-2,-2,0
1622149991509350,0,-1,0,-1,-3,-2,-1,-1
1622149991509350,0,-1,-1,-2,-3,-1,-1,0
1622149991523389,-1,-2,-1,0,1,-2,0,-1
1622149991523389,-1,-2,1,-2,-2,0,-2,0
1622149991531819,0,-1,0,0,-1,-2,0,-2
1622149991531819,-3,-1,-2,0,-1,0,-1,-1
1622149991545780,-2,-1,-1,1,-1,-2,-2,-2
1622149991545780,0,-3,-2,2,0,-1,0,-1
1622149991554778,-1,-1,0,0,0,-1,-1,0
1622149991554778,0,-3,-1,0,-1,-1,0,0
1622149991560905,0,-1,-2,-1,-2,2,0,1
1622149991560905,-2,0,-1,0,-1,-1,-1,-1
1622149991569873,-1,0,0,-2,-1,-2,0,-1
1622149991569873,-1,-1,1,-1,0,0,-1,-1
1622149991583392,-2,-2,0,0,0,0,-1,0
1622149991583392,0,0,0,-3,0,-2,-2,-2
1622149991592429,-2,-2,-2,-1,-2,-1,-1,-2
1622149991592429,-2,0,-1,-1,-2,-2,-2,0
1622149991605864,0,1,-1,1,-1,-3,-4,-2
1622149991605864,0,-1,-1,-1,-2,-2,3,0
1622149991614871,0,-2,-2,-2,-1,0,2,1
1622149991614871,0,-1,-1,-1,1,0,-1,0
1622149991620826,0,-2,-2,-1,-2,0,-1,-1
1622149991620826,-2,-1,0,-1,-2,-4,-5,-2
1622149991629780,0,-1,-1,0,-1,-1,-3,0
1622149991629780,0,-2,-1,-1,0,-2,1,-2
1622149991642754,-1,0,0,-1,-1,-2,1,-1
1622149991642754,-2,-3,-3,-3,0,-1,0,-1
1622149991651729,-1,0,0,-1,0,-2,1,0
1622149991651729,-1,0,0,1,-1,-2,-1,-1
1622149991665744,1,0,-2,-1,-2,1,0,-1
1622149991665744,1,-1,-1,-2,0,1,-1,-2
1622149991674860,0,0,-1,-1,-1,-2,-2,-1
1622149991674860,1,0,0,-1,-1,0,-1,-1
1622149991689789,-2,-2,-3,0,2,-1,0,-2
1622149991689789,-2,0,-2,1,-2,1,-3,-2
1622149991690764,1,-3,0,-1,-2,-1,-3,-2
1622149991690764,0,0,-2,-1,-1,-2,-1,-2
1622149991702822,-1,-1,-1,-1,-2,-1,-1,0
1622149991702822,0,-1,-1,1,-1,-1,0,-1
1622149991711882,-1,0,-1,0,1,1,-2,0
1622149991711882,-1,0,-1,1,-1,-2,-1,1
1622149991725806,0,-2,-1,-1,-1,-2,-1,-1
1622149991725806,0,-2,-1,-1,-1,-1,-1,1
1622149991734830,-1,0,-1,0,-1,0,1,-2
1622149991734830,-1,-2,1,-2,-1,-1,1,-1
1622149991748790,0,1,0,-1,-1,-2,-2,0
1622149991748790,-2,-1,0,-1,-2,0,-1,0
1622149991750756,-2,-2,-1,-3,0,-1,2,-2
1622149991750756,-1,-1,-1,-1,0,-1,-1,0
1622149991762722,-1,-2,0,-2,-1,-2,0,-1
1622149991762722,0,0,-2,1,0,-1,0,-1
1622149991772337,-2,0,-1,-2,-1,-3,1,0
1622149991772337,-1,-2,-1,-2,0,-2,-2,-2
1622149991785894,0,0,-2,-1,-1,-1,1,-1
1622149991785894,-1,-1,-1,-2,-1,-1,0,0
1622149991794055,0,-1,-2,1,1,-1,-1,-2
1622149991794055,0,0,1,-1,0,-1,-1,1
1622149991809712,-2,0,0,0,0,-1,-1,1
1622149991809712,-1,-1,-1,0,-2,-2,-2,-2
1622149991811360,-1,0,-2,0,1,-2,0,-2
1622149991811360,-1,-2,-1,-1,-2,-1,1,-2
1622149991822815,0,-1,-1,-3,-1,0,0,-1
1622149991822815,1,0,0,1,-1,-1,-1,-1
1622149991831779,0,-1,0,-1,-2,1,-1,0
1622149991831779,-2,-2,-3,-1,0,0,-3,-1
1622149991845740,-2,-1,1,-1,0,0,-1,-1
1622149991845740,-1,0,-1,-3,1,-1,-1,0
1622149991854716,0,-1,0,-2,-3,-4,-2,-2
1622149991854716,0,1,-2,-1,-1,-1,-1,-2
1622149991869677,-1,-1,0,0,-1,-2,-1,-2
1622149991869677,-1,-1,-1,-1,-1,-2,-1,-3
1622149991871337,-2,-1,-2,-1,-1,-2,-1,0
1622149991871337,-1,0,-1,-1,0,-3,-2,-2
1622149991882803,-1,0,-2,-3,-3,-1,-1,-2
1622149991882803,0,-1,-2,-1,-1,-2,-2,-1
1622149991891772,0,-2,0,-2,-1,0,-1,-1
1622149991891772,-1,-1,-1,0,-1,-1,-5,0
1622149991905848,-2,-3,-2,-1,0,-1,3,-1
1622149991905848,0,0,0,-1,-2,0,1,0
1622149991914388,0,0,1,-1,-1,1,-1,0
1622149991914388,0,-1,-1,0,-1,-1,-1,0
1622149991929636,-1,-1,0,1,-2,-2,-5,-2
1622149991929636,-1,0,-1,-1,-1,0,0,1
1622149991930794,-2,0,0,-1,0,0,0,2
1622149991930794,0,-1,-1,-1,-2,-2,1,0
1622149991942872,-1,-2,-1,-2,-1,0,0,0
1622149991942872,-1,-1,-1,-3,-2,0,-1,-2
1622149991951799,-1,-1,-3,0,1,0,0,-3
1622149991951799,-1,-1,0,-2,0,-1,1,-2
1622149991965783,0,0,-2,-2,-2,-1,-2,-1
1622149991965783,-1,0,-2,-1,-2,-2,-1,0
1622149991980849,0,-2,-2,1,-1,1,1,-2
1622149991980849,-2,-1,-1,-1,-2,0,-2,-1
1622149991989779,0,-1,-1,-1,0,0,0,0
1622149991989779,-1,-2,-1,1,-1,-1,-1,0
1622149991991778,1,-1,-1,0,-3,1,-1,-1
1622149991991778,-1,-2,-1,0,-2,-2,0,-1
1622149992002770,-1,0,-1,-1,-1,-1,-1,0
1622149992002770,-2,-2,-2,0,-1,-1,-1,-1
1622149992011727,0,0,-1,-1,-1,-3,-2,0
1622149992011727,-1,-1,-2,0,-1,-2,0,-1
1622149992025865,-1,-1,-1,-1,-1,-2,0,0
1622149992025865,0,-1,0,-2,-1,-1,0,-1
1622149992034104,1,-1,-1,-1,-2,-2,-2,-1
1622149992034104,-1,0,-2,-1,0,0,1,-2
1622149992048874,-1,-1,0,0,0,-1,-1,-1
1622149992048874,-1,-4,-1,-1,1,0,-1,-2
1622149992050841,-2,0,-1,0,-2,-1,-2,-1
1622149992050841,0,0,-2,0,-2,-1,-2,0
1622149992062405,0,1,-2,-3,0,-2,0,0
1622149992062405,-1,0,-1,-1,-1,-2,-1,-2
1622149992071982,0,-1,-1,-2,-2,-1,-1,-1
1622149992071982,-1,-3,-2,0,0,2,0,-2
1622149992085851,1,0,-2,0,0,0,-1,-1
1622149992085851,-1,-1,-1,-3,-3,-3,-1,-1
1622149992094895,-2,0,-1,-1,1,0,0,-1
1622149992094895,-2,-2,-1,-1,-1,0,-1,1
1622149992109033,-2,-2,-1,-2,-2,0,-2,0
1622149992109033,-1,0,-1,-1,0,1,-1,-2
1622149992115398,0,-2,-1,0,0,0,-3,-2
1622149992115398,0,0,-2,-1,0,-1,-1,0
1622149992123383,-1,-1,-1,0,-1,-2,-1,-1
1622149992123383,-1,-1,-1,0,0,-2,1,0
1622149992139865,1,-1,0,-3,-1,-3,-2,-2
1622149992139865,0,-1,-1,-2,-1,-1,0,0
1622149992145837,-1,-1,0,-1,-1,0,0,-2
1622149992145837,-1,-1,-1,-2,0,-1,0,-1
1622149992154859,-1,0,-3,-1,-1,-2,0,0
1622149992154859,0,-3,-2,-1,-1,-1,-1,-1
1622149992168413,-1,0,0,0,-2,-2,-2,-2
1622149992168413,0,-2,0,0,-1,-1,-2,-2
1622149992176580,-2,-2,0,-1,-1,1,4,-2
1622149992176580,-1,-2,0,-2,-3,-2,-2,-1
1622149992182822,-1,-2,-1,-1,1,-2,-1,0
1622149992182822,0,1,0,0,-2,-2,-5,-1
1622149992191750,-1,-1,-1,0,1,-2,-2,-2
1622149992191750,0,0,-1,0,-2,-1,3,-2
1622149992205736,-1,-1,0,-2,-1,-3,-3,-1
1622149992205736,-3,-2,-2,-1,-2,-1,0,-3
1622149992214822,1,0,0,-1,1,-2,-1,1
1622149992214822,-2,2,-2,-2,-2,-2,-1,-2
1622149992227852,-1,-2,-2,0,-1,0,1,-1
1622149992227852,0,0,-2,-2,0,-1,-1,0
1622149992236806,-3,-1,-1,-1,-3,-3,-2,-1
1622149992236806,-1,-2,-2,-1,-1,-2,-3,-1
1622149992242886,2,-2,-3,-1,-1,0,1,0
1622149992242886,-1,0,-2,-1,-1,0,0,-1
1622149992259150,-1,-2,-2,-2,-2,-1,-2,-1
1622149992259150,-1,0,-1,1,0,-3,-1,-4
1622149992265434,-2,-1,0,-1,-2,0,0,-1
1622149992265434,1,-1,-2,-2,0,-3,-2,-1
1622149992274901,0,0,-2,-1,-1,-1,0,-1
1622149992274901,-3,0,-1,0,1,1,0,1
1622149992288385,-1,-1,0,1,-1,-1,-1,-1
1622149992288385,-1,-1,-1,1,1,-1,1,-1
1622149992296922,-1,0,-2,1,-2,0,-1,1
1622149992296922,-1,-1,-1,-1,-2,-1,0,0
1622149992303352,-2,-1,-1,-2,0,0,-2,-2
1622149992303352,-1,-1,-1,1,0,-1,-2,0
1622149992311872,-4,-2,-1,-1,-2,-1,-2,-2
1622149992311872,-1,-1,1,-2,0,0,1,-2
1622149992325843,0,0,0,-2,-1,-1,0,-1
1622149992325843,0,-1,1,-1,-1,0,1,0
1622149992334061,-1,-1,-2,-3,0,-1,0,-1
1622149992334061,-1,-1,-1,0,-1,-1,-3,-1
1622149992347903,0,-1,0,-2,1,0,-2,-1
1622149992347903,0,-1,1,-1,-3,-1,-1,0
1622149992356912,0,-3,0,-2,0,-2,-1,-1
1622149992356912,-1,-1,-2,-3,-1,1,-1,1
1622149992362442,-3,0,-2,-1,-1,-1,-2,0
1622149992362442,-1,0,0,1,-1,-2,-1,-1
1622149992379444,-1,0,-1,0,-1,-1,-1,-1
1622149992379444,1,-3,-1,0,-2,3,0,-1
1622149992385454,-1,-2,-1,-3,0,-2,1,-1
1622149992385454,-2,-1,-2,-2,-1,0,0,-2
1622149992394187,-3,-1,-2,-1,-2,-3,0,-2
1622149992394187,-3,-1,0,0,2,-1,-2,-2
1622149992408423,0,0,-1,-1,-1,-1,1,-1
1622149992408423,0,0,-1,-1,-3,-1,-1,-1
1622149992417406,-1,-1,0,-1,0,-1,0,1
1622149992417406,-1,0,-1,-1,-1,-2,-1,-1
1622149992423418,-1,-2,-2,0,-3,-1,-2,-1
1622149992423418,-1,-1,-2,-2,-1,1,-2,-1
1622149992432393,0,-1,0,1,-1,-1,-2,-2
1622149992432393,-1,0,0,-2,-3,-3,-2,-1
1622149992445923,-1,-1,-1,-1,-1,-1,-3,-1
1622149992445923,-1,-1,-2,-1,-2,-1,1,0
1622149992454040,-3,-1,-1,0,-3,1,0,1
1622149992454040,0,-1,0,0,-1,-1,2,-1
1622149992468426,-1,-1,0,0,-2,0,-1,1
1622149992468426,-2,-1,-1,-1,-1,-3,0,-1
1622149992476533,-2,-1,-1,-1,0,0,-2,-2
1622149992476533,-2,0,0,-1,0,-1,1,-2
1622149992482802,-1,-1,-1,0,-2,-1,-2,-1
1622149992482802,0,-2,-2,2,0,0,-1,-1
1622149992491805,1,-2,-1,-1,-2,-2,0,-1
1622149992491805,-1,-1,-1,0,-2,-2,0,0
1622149992505741,-1,0,0,0,-1,-1,0,-1
1622149992505741,0,0,0,-2,0,-1,0,0
1622149992514394,-1,-2,0,0,0,-1,-2,-1
1622149992514394,-2,-2,-2,-2,-1,-1,-4,-1
1622149992528394,0,-3,0,-1,1,-1,1,0
1622149992528394,-1,-1,-1,-1,-1,0,0,-1
1622149992536611,0,-1,-2,-1,0,-3,-1,0
1622149992536611,1,-1,-1,-1,0,0,1,-1
1622149992542624,-1,0,-3,-2,-2,-1,-1,-1
1622149992542624,-1,1,1,-1,-2,1,-1,-1
1622149992551702,0,-1,-1,-3,0,1,-2,-2
1622149992551702,0,-4,-2,0,0,-2,-1,0
1622149992565392,0,0,1,-1,-1,-1,0,-2
1622149992565392,-1,-2,-2,-2,-1,-2,-2,0
1622149992574141,-1,1,0,-1,1,-1,0,-2
1622149992574141,0,1,1,0,-1,0,-1,0
1622149992587577,-1,-2,-1,1,-1,-1,0,0
1622149992587577,-1,-2,-1,-1,-2,-2,-1,0
1622149992596881,0,0,1,1,-2,2,0,-1
1622149992596881,0,-1,0,-1,0,-1,-3,-2
1622149992603086,-1,-1,0,-1,-2,-3,2,-1
1622149992603086,-1,-2,-3,-2,0,-1,-2,-1
1622149992611993,0,-1,-2,0,0,0,0,-2
1622149992611993,-1,2,-1,-2,0,-1,-1,-1
1622149992625806,-1,-1,0,0,-2,-1,-2,-2
1622149992625806,-2,-1,-1,-1,-1,-1,0,-1
1622149992634772,0,-2,-1,-3,-2,-2,0,-1
1622149992634772,-2,-1,-2,-1,-1,-1,1,-2
1622149992647760,-2,0,-2,-1,-2,0,-1,-1
1622149992647760,-2,-1,-2,-3,-2,-2,-1,0
1622149992657491,0,-1,-1,1,-1,-1,0,1
1622149992657491,0,-2,-1,-3,-1,0,-2,0
1622149992672354,-1,1,-1,-2,-1,0,-1,-2
1622149992672354,-1,-1,0,0,0,-1,0,-2
1622149992673359,0,0,0,0,-3,-2,-1,0
1622149992673359,0,-1,0,-1,0,1,1,-1
1622149992685793,-2,-3,-2,0,0,-1,-1,-1
1622149992685793,1,-1,-1,0,-1,-1,-2,-2
1622149992694767,-1,0,-2,-1,-1,-1,-2,-1
1622149992694767,0,-1,0,-2,0,-3,-1,-1
1622149992707839,-1,0,-1,-1,1,1,-2,-1
1622149992707839,0,-1,0,0,-1,0,-1,-1
1622149992717420,-2,0,0,0,-2,0,0,0
1622149992717420,-1,-1,-1,-1,-2,-3,-1,0
1622149992731608,0,-1,-1,-2,-1,-3,-2,-1
1622149992731608,0,-1,0,0,-1,-1,1,-1
1622149992733514,-1,-1,0,-1,1,0,0,-1
1622149992733514,0,-1,-1,-1,-1,-2,-2,-2
1622149992745878,0,0,-2,0,-2,-2,-2,1
1622149992745878,0,-2,-1,-1,0,0,-2,-2
1622149992754947,-2,-3,0,-2,-1,-1,-3,-2
1622149992754947,-2,0,-2,1,-2,3,5,0
1622149992768355,0,-1,-1,0,-1,-5,0,0
1622149992768355,-2,-1,-1,-1,0,1,0,1
1622149992776639,0,-1,-1,-1,-1,-1,-3,0
1622149992776639,0,0,-1,-1,1,-1,-3,-1
1622149992792341,-1,-1,-1,-1,0,1,-2,-1
1622149992792341,-2,-1,0,1,-1,-1,1,-2
1622149992793342,-4,-1,0,0,-1,0,-1,-2
1622149992793342,-1,-1,-1,0,-1,-2,-1,-1
1622149992805091,-1,-1,-1,1,-2,-1,0,-1
1622149992805091,1,0,-1,-2,-3,0,-1,1
1622149992814428,-1,-1,-2,-4,0,-1,1,-1
1622149992814428,-1,-2,-1,1,0,-2,-1,-3
1622149992828357,0,-1,-1,-2,-1,-1,-3,-1
1622149992828357,-2,0,0,-2,0,1,-1,-1
1622149992837339,0,-1,-2,-2,-1,-1,1,-1
1622149992837339,-1,-1,0,0,-2,-1,0,-1
1622149992851324,1,0,-1,-2,0,0,-1,-2
1622149992851324,1,0,-2,0,-1,-1,1,1
1622149992853317,0,0,-1,1,-1,-2,0,-1
1622149992853317,-1,-2,-1,-2,0,-1,-2,0
1622149992865434,-2,-1,-2,-1,-1,1,0,1
1622149992865434,-2,-1,0,0,-2,-2,-1,-1
1622149992874862,-2,1,-2,0,-1,-1,-2,0
1622149992874862,-2,0,-1,-1,-1,-2,-2,-1
1622149992887901,-1,-2,-1,-1,-1,-2,-1,0
1622149992887901,-1,0,-1,-2,-2,-2,-1,0
1622149992896854,0,-1,0,-1,-1,2,-1,-1
1622149992896854,0,-2,-2,0,-3,0,-2,-1
1622149992911813,0,-1,-1,-1,-2,-2,2,-1
1622149992911813,-1,-1,-2,-1,-1,-3,-2,-2
1622149992913809,0,-2,0,-2,-1,0,-1,-1
1622149992913809,-2,-2,0,-1,-1,-2,-1,0
1622149992925853,-1,-1,-1,0,-1,0,0,-1
1622149992925853,-1,0,-1,-1,0,0,-1,0
1622149992934124,-1,-1,-2,1,-1,-1,0,-1
1622149992934124,-1,0,1,-4,-1,0,-1,-2
1622149992947869,-1,-2,0,-2,-1,0,-2,-1
1622149992947869,-2,0,1,-1,1,0,0,0
1622149992956818,0,0,-1,-1,-1,-1,-4,0
1622149992956818,0,-1,-1,-2,-1,0,0,1
1622149992972284,1,-2,0,-1,-1,-2,-2,0
1622149992972284,-1,0,0,-1,-2,-2,1,-2
1622149992973358,-1,0,-2,-1,1,-2,-1,0
1622149992973358,0,-1,-2,0,0,-2,-1,0
1622149992985895,-2,0,-1,-2,-2,-1,-1,-1
1622149992985895,0,-2,-2,-1,-3,-2,-2,-1
1622149992994201,-2,-2,0,-1,-2,-1,0,-1
1622149992994201,-1,1,-2,1,-1,-1,-2,-2
1622149993008445,-1,-1,-1,0,-2,-2,-1,1
1622149993008445,1,-1,-1,-1,0,-1,-1,-2
1622149993016543,-2,-2,-2,0,-1,0,-2,-1
1622149993016543,-1,-1,0,-1,-2,-1,-1,1
1622149993031459,-2,-1,-1,-1,0,0,-1,-2
1622149993031459,-1,-1,0,0,-2,-1,-4,-1
1622149993033453,-1,-1,-1,-1,-3,-1,1,0
1622149993033453,0,-1,0,-1,1,1,1,-1
1622149993045543,-1,-1,-1,-1,0,-1,0,-1
1622149993045543,0,0,-1,-2,0,-2,-1,-2
1622149993054521,0,-1,-2,-3,0,-1,-3,-1
1622149993054521,-1,0,-1,-1,-2,-2,-1,0
1622149993068417,0,0,-1,0,-3,-1,1,-2
1622149993068417,0,1,-3,-3,-1,0,0,-1
1622149993076614,-2,0,1,0,0,-2,-1,0
1622149993076614,-2,-1,-1,-1,0,-1,-2,-2
1622149993091455,1,-1,0,0,-2,1,-1,0
1622149993091455,-1,-3,-1,-1,-1,-1,-1,-1
1622149993093399,0,-1,-3,0,0,0,0,-1
1622149993093399,-2,0,-2,0,0,-1,0,-2
1622149993105502,-2,-2,0,-1,0,-1,0,0
1622149993105502,-1,-1,0,0,-1,1,-2,-2
1622149993114392,-1,-3,-2,-2,-1,-2,-1,-1
1622149993114392,1,-2,-2,0,-1,-2,0,0
1622149993128389,-1,1,-1,-1,-1,-2,-2,0
1622149993128389,0,-1,-2,-1,0,-2,0,0
1622149993136525,-2,-1,-1,1,-1,0,-2,-2
1622149993136525,-1,-1,0,-1,0,0,0,-2
1622149993151507,-1,-2,-2,0,-2,0,0,-1
1622149993151507,-1,-2,0,1,0,-1,1,2
1622149993153482,1,2,0,-1,-3,-1,-1,-2
1622149993153482,-1,-2,0,-1,-1,-3,-2,-1
1622149993165810,-1,0,-1,-1,-1,-2,-1,-3
1622149993165810,0,0,-2,-1,-1,-1,-2,-1
1622149993182453,0,-1,-2,-3,-2,-1,0,-2
1622149993182453,0,-2,-4,-3,-3,-2,-2,-1
1622149993188469,-1,0,-1,0,1,-1,-2,-2
1622149993188469,-1,-1,-3,0,1,0,0,-1
1622149993196866,0,-2,0,-1,-1,-2,-2,1
1622149993196866,-2,-2,-4,-2,0,-1,-1,0
1622149993211532,0,-1,-2,-1,-2,-1,0,-1
1622149993211532,-2,0,1,0,0,0,-1,-1
1622149993213446,-1,0,-2,-1,0,-2,0,0
1622149993213446,-2,1,1,-1,0,-2,-1,-1
1622149993225883,-1,-1,0,0,-1,-2,-2,-2
1622149993225883,-2,0,-2,-1,-1,-1,-1,0
1622149993234114,0,-2,0,0,-1,-1,-1,-1
1622149993234114,0,-1,1,1,-2,-1,-1,-2
1622149993257083,-1,1,-1,-1,1,-1,1,-2
1622149993257083,-2,-1,0,-1,-1,-2,0,-1
1622149993258053,-1,0,-2,0,-1,-2,-2,-1
1622149993258053,1,1,-1,-1,-1,-2,-1,0
1622149993272062,-1,-1,-1,-2,0,-1,-1,1
1622149993272062,0,-1,1,0,-2,-1,-1,-1
1622149993273013,-2,0,1,0,0,0,0,-2
1622149993273013,-3,-1,-3,-1,1,-1,-1,0
1622149993285832,-1,-1,-2,-1,0,-1,-1,-1
1622149993285832,-1,0,-2,0,-1,0,1,0
1622149993294175,-2,0,0,0,0,0,1,-1
1622149993294175,-1,-2,-2,-2,0,-1,1,-1
1622149993308495,0,-2,-1,-1,-2,0,-1,0
1622149993308495,-1,0,-1,0,0,0,-1,-1
1622149993316880,-1,-2,0,-1,-2,0,-1,-2
1622149993316880,-1,-1,-1,0,-1,0,0,-1
1622149993331552,-2,-1,-2,-2,0,0,-1,-1
1622149993331552,1,-1,0,0,-1,-2,-1,-2
1622149993333464,1,1,-1,-1,-1,-1,-1,-3
1622149993333464,-1,-3,1,-1,-2,-1,-2,-1
1622149993345860,0,-1,0,2,1,0,-1,0
1622149993345860,-1,-1,-1,-2,0,-4,-2,-1
1622149993355026,-2,-2,-1,-2,-1,-1,-2,0
1622149993355026,0,0,0,0,-1,1,-1,0
1622149993368453,-2,-1,-2,-1,0,-2,-2,1
1622149993368453,-2,0,-2,-2,-1,-1,0,-1
1622149993376687,-1,-1,0,0,-1,-1,0,-1
1622149993376687,-1,-1,-1,-3,-1,-1,0,0
1622149993391604,-1,-1,-1,-1,-1,-2,-1,-1
1622149993391604,-2,-2,-1,-1,0,-1,1,0
1622149993398342,-2,-1,-2,-1,0,-1,-1,-1
1622149993398342,-1,-1,0,0,-2,-2,1,-2
1622149993405845,1,0,0,-2,-1,0,0,-3
1622149993405845,-1,-1,-3,-1,-2,-1,1,-1
1622149993414898,-1,0,-1,-2,-1,-2,-1,-2
1622149993414898,0,-1,-1,0,1,-1,-1,-1
1622149993427990,2,-1,0,-1,-1,0,-2,-1
1622149993427990,1,0,1,-1,0,0,-3,-1
1622149993436735,-1,-1,-1,-1,-2,-1,-1,0
1622149993436735,1,2,-1,-1,-1,-1,-1,0
1622149993450909,-1,-1,-2,-3,-1,-1,-2,-1
1622149993450909,-1,-1,-1,-1,0,0,-2,-1
1622149993458102,-1,-2,-2,0,-1,0,0,0
1622149993458102,0,-1,-2,-1,0,0,-2,-1
1622149993465433,0,-1,1,-1,-2,-3,0,0
1622149993465433,-2,0,-1,-1,-3,-1,-2,-2
1622149993474369,0,0,0,1,-2,1,-1,0
1622149993474369,1,-2,-1,-1,-2,0,-1,-3
1622149993488444,-1,-1,-1,0,1,0,1,-2
1622149993488444,0,-1,0,0,-1,0,-1,0
1622149993497418,-2,0,-1,-1,-1,-3,0,-2
1622149993497418,0,0,-1,-1,-1,-2,-1,0
1622149993511415,-2,0,-1,-1,-1,-2,-1,0
1622149993511415,0,0,-1,-1,1,0,-2,-1
1622149993518394,0,-3,-1,0,-1,-1,-2,0
1622149993518394,0,-1,-2,-1,1,-1,-1,-1
1622149993525832,0,-2,1,-1,-2,0,-1,-2
1622149993525832,1,-2,0,-1,-1,-1,1,-1
1622149993534142,-1,1,-3,-1,-1,-2,0,0
1622149993534142,-2,-2,-1,1,1,-1,-2,0
1622149993548144,-2,-1,-1,0,-2,0,0,-1
1622149993548144,-2,-2,-1,-1,0,-1,0,-2
1622149993557084,-1,0,0,-2,-1,-1,0,-2
1622149993557084,-1,0,-1,-1,0,-2,-2,-2
1622149993571660,-1,-1,-1,0,1,-1,-2,0
1622149993571660,-1,-1,-2,-1,-2,0,0,-1
1622149993578459,0,-1,-1,0,-2,1,-3,-1
1622149993578459,-1,-1,-2,-1,-1,-1,-1,-1
1622149993595003,0,-1,-1,0,-1,-3,-2,-1
1622149993595003,0,-2,-1,-2,-1,-1,-1,-2
1622149993596901,-1,-1,-2,-2,-1,-2,-1,0
1622149993596901,0,-2,0,-1,0,0,1,-2
1622149993608494,-2,-2,-1,-2,0,0,-2,1
1622149993608494,-1,0,0,0,-1,1,-2,0
1622149993616680,-2,-1,-3,-2,0,1,-2,-2
1622149993616680,-1,-1,-1,-1,-1,-1,-2,0
1622149993630777,-1,-1,-1,-1,-2,-1,-1,-1
1622149993630777,-1,-1,0,-1,-1,-2,1,0
1622149993638482,0,-1,-1,-1,0,-1,-1,-1
1622149993638482,-1,0,-1,-1,-1,-1,0,-1
1622149993655436,1,1,-2,0,-1,-1,0,-1
1622149993655436,-1,0,-2,0,-1,-1,-2,-2
1622149993656299,-1,-1,0,-1,1,0,-1,0
1622149993656299,0,-1,-1,-1,-2,-4,0,0
1622149993668488,0,-2,-1,-1,0,0,0,-1
1622149993668488,-1,1,0,0,-3,0,0,-1
1622149993677449,0,0,0,-3,0,-2,0,-1
1622149993677449,0,-1,-1,-2,-2,1,-1,0
1622149993691557,0,-1,-1,0,-2,-1,-1,0
1622149993691557,1,-3,-1,-1,0,-1,-1,1
1622149993698344,0,-1,-1,0,-1,-2,-1,-1
1622149993698344,0,-1,-1,-1,-2,-1,0,-2
1622149993714428,0,-1,-2,0,-1,-1,-1,0
1622149993714428,-3,-2,-2,-1,-1,-1,-2,-1
1622149993716499,-2,-1,-3,-1,-1,-1,-2,1
1622149993716499,-1,0,1,0,0,-1,-2,0
1622149993728407,0,-2,-2,-3,-2,-2,0,-1
1622149993728407,0,0,-1,-2,-1,0,-1,-2
1622149993737388,0,-1,1,-2,0,-1,-1,-1
1622149993737388,-1,1,0,-1,-1,-3,-3,-1
1622149993751380,-2,1,-1,-2,-1,0,-1,-1
1622149993751380,-1,0,-2,0,0,-3,0,-1
1622149993765314,-2,-1,1,0,-2,-1,1,0
1622149993765314,0,-2,-1,0,-3,0,-2,-1
1622149993774291,-3,-3,0,0,-1,-2,-3,-4
1622149993774291,0,-2,-2,-1,-1,0,0,0
1622149993776285,0,-2,-3,0,0,-2,-1,0
1622149993776285,-2,-3,0,-2,-1,-2,0,0
1622149993788469,-1,0,0,0,-1,-2,0,0
1622149993788469,0,-1,-1,-1,-2,-1,-1,0
1622149993796524,-2,-1,-1,0,-1,-1,0,0
1622149993796524,0,0,-3,-1,-2,-1,1,1
1622149993810977,0,1,-1,0,-2,-1,0,-1
1622149993810977,-1,-1,0,0,-1,-1,-1,-2
1622149993819759,-1,-1,-2,-1,-2,-1,0,-3
1622149993819759,-3,0,-1,-2,1,-1,-2,-2
1622149993833878,0,-2,-1,-1,0,-1,2,-1
1622149993833878,-2,0,-1,0,-2,-1,-1,1
1622149993835876,-2,0,-1,-2,-3,-2,-2,-2
1622149993835876,0,1,1,1,-2,0,-1,1
1622149993847885,-2,-1,-2,0,0,0,-2,0
1622149993847885,0,-2,0,-2,-1,-1,-1,0
1622149993856713,-1,-2,-3,-1,0,0,0,-2
1622149993856713,-2,-3,-1,0,0,-2,0,-1
1622149993870782,-1,0,-1,-2,-2,-1,-1,1
1622149993870782,-2,1,0,-1,0,-1,-2,-1
1622149993879538,0,-1,-1,-1,-1,0,0,0
1622149993879538,-1,-2,-2,1,-2,1,-2,-1
1622149993894871,-2,0,-1,-1,-1,-1,-2,-3
1622149993894871,-3,0,-1,-2,-2,0,-2,-1
1622149993895785,-1,-1,-1,1,-1,-1,-1,-2
1622149993895785,-1,-1,-3,-2,-1,-1,1,-1
1622149993908468,1,-1,-2,-2,-2,-1,-1,-1
1622149993908468,1,-1,-1,-1,0,-1,-1,-1
1622149993916771,-1,-2,0,0,0,-3,-2,-1
1622149993916771,1,0,0,-2,-1,0,-2,-1
1622149993930569,0,1,-2,0,-2,-2,0,-1
1622149993930569,-2,-1,-2,0,-1,-3,-1,1
1622149993939778,0,0,-1,-2,-1,1,0,-1
1622149993939778,-1,0,-1,-1,-1,-2,0,-2
1622149993954879,0,-1,0,-2,-1,0,-1,0
1622149993954879,-1,-1,-2,-2,-1,-2,-3,-2
1622149993955779,-1,-1,-1,0,0,-1,-1,0
1622149993955779,0,-1,-2,-1,-2,-1,0,-1
1622149993967921,-1,-3,-3,-1,0,-1,0,-2
1622149993967921,1,-2,-2,0,-1,-1,-3,-1
1622149993977466,-1,-2,0,-1,0,-2,-1,-1
1622149993977466,-1,0,0,-2,0,-1,-1,0
1622149993990885,0,-2,-1,-1,0,-2,0,-1
1622149993990885,-1,-1,1,1,0,-1,1,-2
1622149993999818,1,-1,-1,-1,-2,-1,1,-1
1622149993999818,-2,-2,-1,0,1,-2,-1,-1
1622149994014800,-1,-1,-1,-2,-1,-3,0,0
1622149994014800,0,-1,-1,0,0,-1,-1,0
1622149994015775,2,-1,-1,0,0,0,-2,0
1622149994015775,0,-2,-2,0,-1,-1,-1,0
1622149994028418,-2,-2,-1,0,-1,-1,-2,-2
1622149994028418,-1,-3,-1,-1,-1,-1,1,-1
1622149994044798,-1,1,-2,-2,-2,0,-1,-1
1622149994044798,-1,-2,-2,-2,-2,0,0,0
1622149994050782,-2,-1,-3,-1,-1,-1,-2,0
1622149994050782,-1,0,0,-1,-1,0,1,-1
1622149994059781,-2,-1,0,-1,-1,-1,-2,-2
1622149994059781,1,1,0,-1,-2,-2,0,-2
1622149994074878,0,-1,1,-2,0,-1,-1,-2
1622149994074878,0,-1,-1,0,-1,-2,0,0
1622149994075782,-2,0,-1,0,-1,-1,-1,0
1622149994075782,0,-1,-1,-1,-3,-1,-1,-1
1622149994088005,-1,-1,1,1,-1,-2,-1,0
1622149994088005,-1,-2,-1,-2,1,-1,-2,-1
