timestamp,emg1,emg2,emg3,emg4,emg5,emg6,emg7,emg8
1622149550138708,-7,8,-5,-7,-6,-9,-1,-7
1622149550138708,-2,5,-9,-13,0,2,-11,2
1622149550146687,5,-1,9,7,12,22,22,3
1622149550146687,-5,-18,-1,-1,0,-8,-19,5
1622149550147684,-3,21,-2,-6,-23,1,8,-10
1622149550147684,-18,-9,-9,-12,1,-25,-18,-11
1622149550160784,14,-3,-2,-6,11,9,-3,-4
1622149550160784,9,14,16,29,19,-2,7,12
1622149550168837,1,-5,1,-7,9,16,-1,-6
1622149550168837,-10,1,1,6,-14,-25,-25,33
1622149550184563,-2,-5,-1,-4,-15,5,6,-16
1622149550184563,1,-6,-9,-3,-3,-13,-11,-14
1622149550191553,13,-11,-11,-4,26,10,-5,11
1622149550191553,-29,-1,-4,2,-12,14,7,-13
1622149550206541,6,-7,3,4,-26,-7,0,24
1622149550206541,-5,-19,-18,-25,5,3,-16,-38
1622149550207508,6,21,14,19,7,-18,-7,-4
1622149550207508,-4,-16,-3,-16,6,2,-7,2
1622149550220866,2,3,-3,1,-8,-21,-26,1
1622149550220866,-8,12,7,8,12,19,3,-13
1622149550228947,-6,-10,-4,-9,2,0,29,14
1622149550228947,10,-1,3,8,8,17,6,-19
1622149550243573,-18,-14,-4,-3,11,9,1,-12
1622149550243573,18,10,3,6,25,-2,5,27
1622149550251614,-7,-18,-7,1,-46,-10,-25,1
1622149550251614,1,14,1,-6,15,11,27,-2
1622149550267162,-1,-19,-7,-9,-19,-2,4,-12
1622149550267162,-3,3,-7,2,23,7,-26,16
1622149550267162,1,-8,-5,0,4,-3,15,-7
1622149550267162,-2,5,10,23,13,6,8,-5
1622149550281405,16,-9,-3,-6,-14,0,-23,1
1622149550281405,-21,7,-9,-11,-17,-22,34,38
1622149550288327,-3,-7,1,-6,15,32,14,-6
1622149550288327,11,6,-10,-8,-34,-38,-53,-18
1622149550305282,-8,3,2,1,40,36,0,8
1622149550305282,25,-4,-4,-1,-43,-14,18,4
1622149550311292,-19,-12,-4,-6,11,-17,-14,-1
1622149550311292,1,0,-2,-10,-22,23,27,1
1622149550327084,-1,-3,-8,6,5,-25,-30,14
1622149550327084,1,10,14,9,12,31,0,-8
1622149550327947,-6,-14,3,-5,-30,-20,-19,-26
1622149550327947,8,2,-5,9,28,2,-3,29
1622149550341395,-5,3,8,6,3,-10,3,9
1622149550341395,-5,-1,-12,-10,-13,4,-4,-68
1622149550348371,8,-5,11,16,17,-6,5,11
1622149550348371,-14,-7,-2,-8,-3,2,13,4
1622149550363853,2,21,-1,-2,-1,1,0,4
1622149550363853,-5,0,2,-4,-16,-9,-7,-2
1622149550371834,-9,-11,-3,-1,29,2,-19,-5
1622149550371834,0,9,-3,-8,-21,-1,14,-10
1622149550386945,0,-16,-5,-17,12,4,15,-19
1622149550386945,-1,3,19,30,12,0,-12,-10
1622149550387946,1,19,-3,-9,-29,-7,-1,38
1622149550387946,10,-11,-6,-10,16,5,8,10
1622149550400911,-5,-5,-1,3,18,-2,-4,-6
1622149550400911,3,0,-7,-12,-14,-12,-11,2
1622149550408919,-9,-3,-1,-1,4,11,12,-7
1622149550408919,3,-14,2,2,-4,-15,-14,0
1622149550423829,10,2,4,-3,-2,11,21,-6
1622149550423829,-8,-4,-1,-6,16,-12,-23,12
1622149550432093,22,25,-1,8,-28,-2,22,13
1622149550432093,-15,-12,11,8,17,4,-6,-9
1622149550446292,3,7,1,5,-12,15,8,-6
1622149550446292,-1,-20,11,11,0,-17,-1,5
1622149550454285,0,-4,-11,-15,20,12,-15,-5
1622149550454285,-3,8,5,-6,-23,-19,4,-8
1622149550461394,0,-4,2,20,3,13,19,-21
1622149550461394,1,-2,-6,-11,-14,17,2,28
1622149550468943,2,17,1,-12,3,-2,-9,-6
1622149550468943,-7,-4,1,0,-11,-21,-14,-6
1622149550483903,-24,3,-3,3,13,8,8,15
1622149550483903,36,-6,-6,-13,-25,-2,3,-14
1622149550491910,-19,-3,11,9,34,-2,-24,-18
1622149550491910,3,-2,-14,-6,-25,19,40,15
1622149550505848,-1,-6,-2,-23,-9,-34,-48,9
1622149550505848,0,3,-2,21,35,4,25,-32
1622149550514579,-2,-4,7,-2,-35,-4,24,25
1622149550514579,6,2,3,12,14,15,-45,-32
1622149550520813,-6,17,-9,-12,-7,-25,3,10
1622149550520813,-3,-13,4,1,-2,26,9,-1
1622149550528880,17,-10,1,5,14,6,9,-12
1622149550528880,-25,0,2,4,-12,-3,18,19
1622149550543815,11,4,-7,-4,0,-6,-26,-11
1622149550543815,-5,13,5,-8,-9,0,-11,-11
1622149550551792,-1,-3,-11,-2,-5,-3,23,19
1622149550551792,10,0,-2,-11,25,-11,-28,-4
1622149550565730,-3,-11,10,13,-32,4,35,5
1622149550565730,-11,2,-13,-14,7,7,-31,6
1622149550582570,-2,-5,6,9,6,-6,10,-4
1622149550582570,17,5,-4,-3,-24,5,6,-3
1622149550590552,-10,-1,0,-3,16,9,-3,-34
1622149550590552,4,7,7,15,0,-26,6,0
1622149550591550,16,5,2,15,-12,9,-27,1
1622149550591550,-20,-16,-6,-18,13,-16,2,0
1622149550603576,4,13,-4,-9,-28,-4,15,7
1622149550603576,-3,-9,-8,1,1,-8,-6,6
1622149550612168,-6,-12,-9,-7,17,6,-15,-21
1622149550612168,5,11,3,11,16,3,8,7
1622149550626490,11,-10,0,3,-15,-9,-14,-13
1622149550626490,-22,1,-17,-30,-23,-9,-8,-18
1622149550634415,-8,4,21,24,-7,-22,-8,15
1622149550634415,-1,-6,-19,-30,-4,15,-4,-13
1622149550649375,5,7,21,36,26,8,25,15
1622149550649375,7,2,-7,-4,-1,27,-4,16
1622149550650372,-3,-25,-8,-4,-4,-14,24,-14
1622149550650372,2,5,0,5,11,-13,-5,-9
1622149550663882,-12,-4,0,-7,-22,22,-4,13
1622149550663882,-6,15,-4,-6,7,-11,15,16
1622149550671863,13,5,-12,-13,-4,14,-15,-22
1622149550671863,-8,-6,-3,20,25,-10,-12,18
1622149550685895,-2,-12,-5,-13,-20,10,2,8
1622149550685895,4,-11,-10,2,20,7,24,-4
1622149550693899,-4,8,16,-1,-36,-23,-11,0
1622149550693899,-8,10,-4,-12,-4,28,11,-17
1622149550709631,2,-13,-3,8,5,-43,-17,41
1622149550709631,-11,13,1,-18,12,19,17,-31
1622149550709775,-19,0,-1,7,14,-29,-37,3
1622149550709775,16,6,10,17,0,21,8,-5
1622149550724016,-17,-10,-15,-24,-10,0,4,4
1622149550724016,18,-10,-4,-15,-1,-18,15,10
1622149550738905,1,-2,-2,2,20,13,7,10
1622149550738905,-8,9,5,9,-22,-23,-24,-2
1622149550745887,9,-5,-13,-9,25,2,5,-8
1622149550745887,-2,5,5,15,-36,-17,0,2
1622149550753856,-33,4,14,-13,1,10,12,17
1622149550753856,35,-1,3,-2,-7,-11,-8,-2
1622149550769619,-6,4,-13,10,18,12,9,-9
1622149550769619,0,-5,13,8,-1,-22,-34,11
1622149550769805,-3,-12,-13,-20,-8,-1,23,-35
1622149550769805,10,6,0,-5,-2,-5,-25,23
1622149550783943,-16,-8,2,-2,-3,4,14,3
1622149550783943,-6,33,8,9,-15,14,-6,-1
1622149550791948,11,-14,-12,-2,16,-21,-14,0
1622149550791948,-2,8,2,5,4,11,3,-13
1622149550806028,17,5,17,13,4,-6,-13,-17
1622149550806028,-5,-13,-9,-19,-10,2,7,22
1622149550814689,-4,8,11,20,34,20,-25,-37
1622149550814689,5,-10,-6,-10,-56,29,26,0
1622149550829656,-11,6,-1,-9,4,-37,-3,14
1622149550829656,0,-1,4,24,19,-8,34,-12
1622149550829773,-11,-9,-5,-21,-2,5,-23,6
1622149550829773,-2,-7,-2,4,-3,-6,-11,-5
1622149550843589,-10,18,-2,1,23,10,4,-16
1622149550843589,24,-7,5,-1,3,1,-18,15
1622149550852162,-5,3,-6,-3,-14,-6,12,-15
1622149550852162,-15,7,0,0,15,-7,6,2
1622149550866526,6,9,-9,1,-27,16,9,13
1622149550866526,-7,0,12,10,12,-1,-29,-56
1622149550874873,11,-6,-5,-2,28,-1,23,17
1622149550874873,-7,3,7,-1,-34,17,-29,4
1622149550888874,1,-10,-10,-2,-32,0,44,-8
1622149550888874,7,-6,-7,-10,-2,-35,-32,0
1622149550889873,-12,-7,-1,12,-8,15,13,14
1622149550889873,19,-7,1,-1,59,4,-5,-13
1622149550904422,-9,25,11,-2,-18,-8,-9,-12
1622149550904422,-13,-14,-6,-7,-12,12,35,20
1622149550911511,13,4,-8,6,-15,-14,-45,-8
1622149550911511,-8,-7,-7,2,-1,-18,10,25
1622149550934420,12,-16,20,9,21,17,5,-3
1622149550934420,-12,-1,-10,-6,-1,3,-13,4
1622149550935420,1,3,-5,-5,0,-5,14,0
1622149550935420,4,-3,3,14,7,-15,-11,5
1622149550949457,1,-9,-3,-6,-17,-4,-29,-30
1622149550949457,-7,-8,-2,-11,5,21,17,-16
1622149550950355,13,13,-10,-18,-15,-3,-11,10
1622149550950355,-15,-3,3,0,3,-24,-5,-9
1622149550963432,3,-8,-3,5,0,18,8,6
1622149550963432,4,-6,-8,-1,16,2,-5,25
1622149550971804,-2,1,-2,-10,-30,-17,-9,-37
1622149550971804,0,8,0,-5,-13,-12,11,-29
1622149550985821,4,-1,-6,-10,28,9,-10,54
1622149550985821,5,-7,-6,10,-18,-1,-31,-1
1622149550993809,-6,-1,6,8,22,13,68,16
1622149550993809,10,-15,-1,-2,2,12,-16,-1
1622149551008791,-10,15,-7,-13,0,-30,-1,-22
1622149551008791,0,2,21,34,-15,25,19,-7
1622149551016914,24,4,-3,-20,-17,-2,-33,16
1622149551016914,-19,-5,-6,1,3,3,19,-7
1622149551024052,3,-6,5,0,4,-26,-14,3
1622149551024052,6,4,-7,-5,3,-7,-9,12
1622149551032140,-19,-26,-5,-2,4,13,16,1
1622149551032140,11,34,-3,-12,3,4,14,0
1622149551046294,-10,-5,5,6,8,-5,-17,7
1622149551046294,-13,-10,-5,-15,-23,-14,-23,-24
1622149551054273,-4,4,-3,17,32,7,14,-2
1622149551054273,8,-6,-12,-17,2,15,14,7
1622149551069635,-4,-10,9,-1,-9,14,-26,0
1622149551069635,-4,7,5,18,-7,-20,10,-10
1622149551069807,3,6,4,2,-1,7,-14,-5
1622149551069807,12,-14,-5,-8,14,35,3,30
1622149551083948,-15,19,-2,-3,-3,-8,0,-69
1622149551083948,5,-7,-3,-14,16,-32,-14,-3
1622149551090957,13,8,5,14,-14,8,-15,-1
1622149551090957,-20,-4,7,4,-1,-27,6,-8
1622149551105847,19,-8,0,-1,-2,7,5,25
1622149551105847,-6,4,-10,-15,20,1,13,-1
1622149551114790,-6,-10,8,4,6,5,-16,3
1622149551114790,-6,-7,-11,-10,-20,2,26,-11
1622149551129433,3,1,3,14,18,-14,-45,-12
1622149551129433,7,-1,-4,-14,-34,24,63,21
1622149551137167,-9,-17,0,15,4,-7,-7,34
1622149551137167,-8,10,-2,-19,-4,-11,-18,-26
1622149551143887,4,-3,-2,4,10,16,7,12
1622149551143887,6,1,-9,-26,-10,-29,-31,-35
1622149551150844,-16,15,16,21,-13,1,26,25
1622149551150844,-11,-16,-2,3,13,-7,-18,-16
1622149551165803,5,-1,-3,-9,-33,11,13,12
1622149551165803,-3,8,-1,-9,24,-3,-6,-8
1622149551173782,12,14,13,12,-8,-17,7,-5
1622149551173782,-1,-18,-4,6,-8,1,-3,19
1622149551188742,-4,12,5,-7,-23,6,4,-39
1622149551188742,0,-24,-11,-3,15,3,-9,17
1622149551189739,-13,13,-7,-4,-10,13,4,-21
1622149551189739,8,7,5,13,4,-24,8,23
1622149551203703,-3,-13,-5,-5,-29,-36,17,7
1622149551203703,-8,-15,-2,3,4,39,-6,19
1622149551211334,4,3,-7,-14,-4,4,-10,-6
1622149551211334,-4,-2,5,-7,23,-5,-22,-10
1622149551226054,0,-2,-11,-14,-13,-8,6,2
1622149551226054,4,-9,-1,13,-1,-8,9,24
1622149551234033,-9,10,0,-4,-4,13,0,-33
1622149551234033,19,-6,2,6,-4,-4,3,12
1622149551248993,-15,-9,-12,-16,16,17,-7,13
1622149551248993,-19,14,7,21,4,8,-1,-10
1622149551249991,37,-8,-7,-16,-5,-12,30,8
1622149551249991,-6,1,-5,2,5,2,-7,37
1622149551263953,9,0,-2,15,-6,29,-7,-23
1622149551263953,-20,-7,-5,-7,5,-82,-29,-11
1622149551270936,4,-1,12,10,11,-2,-2,4
1622149551270936,-23,15,-1,-17,-28,15,-27,-40
1622149551294871,28,-3,1,-1,9,-6,48,63
1622149551294871,1,16,5,13,17,17,-12,-17
1622149551295868,-5,-5,-2,-3,-12,-16,-7,-24
1622149551295868,-3,1,3,2,9,-1,10,0
1622149551308857,0,-12,0,11,36,13,-44,-5
1622149551308857,6,2,-6,-14,-40,11,13,-13
1622149551309855,-10,-19,-6,1,28,-16,17,12
1622149551309855,-9,8,5,5,-44,-11,-48,-4
1622149551323198,1,5,-2,-5,25,-12,4,-54
1622149551323198,-5,-4,0,-7,-50,18,30,46
1622149551331200,5,-21,-18,-17,-1,-7,-27,-4
1622149551331200,-23,34,12,15,22,18,22,8
1622149551346136,29,20,4,6,1,-17,17,3
1622149551346136,-2,-6,10,-6,-2,-8,-52,-28
1622149551354308,-2,18,-14,-13,-15,6,35,22
1622149551354308,8,-17,-4,-7,11,4,6,7
1622149551369294,-21,-15,6,4,-7,0,-6,7
1622149551369294,7,2,-12,0,28,30,13,-21
1622149551370266,9,4,14,7,6,-34,-52,-1
1622149551370266,5,-9,-14,0,-15,-1,12,-6
1622149551383855,-9,2,3,-2,2,-8,-7,15
1622149551383855,-6,-15,-16,-17,22,8,13,18
1622149551390869,-5,-3,1,-4,-33,1,2,-28
1622149551390869,-16,-7,3,3,7,12,19,36
1622149551415302,2,-13,-9,-12,-27,-13,0,-19
1622149551415302,3,0,9,14,12,6,3,21
1622149551416164,0,38,6,0,0,14,-10,20
1622149551416164,8,-10,-1,-4,22,-40,-20,-40
1622149551428929,-13,3,-4,4,-39,27,-11,16
1622149551428929,-12,-17,0,-10,4,-13,20,2
1622149551436832,18,-4,17,12,-5,-18,-25,3
1622149551436832,-3,0,-16,-7,-25,-5,9,-40
1622149551443797,-9,-4,0,0,16,12,-8,5
1622149551443797,-2,12,6,0,-7,-7,10,-17
1622149551450776,-3,-15,-17,-11,-12,-5,-20,-36
1622149551450776,27,5,7,-5,-10,6,28,46
1622149551465761,-23,-13,-10,-3,12,9,10,-11
1622149551465761,12,13,3,0,10,-10,-13,-6
1622149551474715,-2,1,-7,-13,0,7,25,24
1622149551474715,-2,-11,-7,-1,16,16,-19,-6
1622149551488812,-3,0,5,-4,-14,-13,15,-33
1622149551488812,10,13,5,6,17,-1,-23,-2
1622149551496813,1,-3,0,0,2,-9,4,27
1622149551496813,-9,13,9,12,22,8,32,-9
1622149551511772,2,3,23,23,-7,-37,-68,-17
1622149551511772,-5,-4,-10,-12,-27,36,25,7
1622149551512749,-11,-13,-4,-9,33,-11,-37,-33
1622149551512749,0,-8,0,12,-24,-12,55,11
1622149551526487,8,9,-1,13,16,12,83,14
1622149551526487,-4,0,-1,11,3,-27,-65,-3
1622149551534471,-12,-4,-14,-32,-1,7,20,-14
1622149551534471,0,-2,-2,23,10,0,-10,12
1622149551548433,-1,3,4,-4,-22,9,26,-8
1622149551548433,3,3,-3,-3,-7,-8,-19,17
1622149551556873,21,-2,-4,6,7,-13,-2,-8
1622149551556873,-27,-5,-11,-24,-1,-32,-35,-26
1622149551563916,28,-19,-7,-4,9,4,-39,-5
1622149551563916,-8,12,5,4,-9,0,48,83
1622149551570844,-17,21,3,-8,-37,-3,-16,-68
1622149551570844,16,21,8,4,21,26,16,11
1622149551585852,-4,-30,-10,1,5,-17,-30,-9
1622149551585852,1,20,9,7,8,-16,-7,-5
1622149551593833,-8,-11,-13,-12,4,38,-20,13
1622149551593833,-5,-7,2,-19,-16,6,4,-21
1622149551608979,-4,2,-2,10,18,-2,11,15
1622149551608979,2,-8,-3,-27,19,18,33,-31
1622149551616941,-1,-8,-1,31,-31,-25,22,59
1622149551616941,3,-4,-5,-10,-31,-6,-58,-15
1622149551632153,-4,5,-10,-27,3,3,20,3
1622149551632153,13,-16,0,12,15,7,-20,-24
1622149551632327,0,22,14,22,4,-6,-38,17
1622149551632327,-12,-16,-17,-25,8,47,19,-1
1622149551646319,5,10,13,8,2,-4,9,20
1622149551646319,-10,-7,-10,6,6,-8,-7,1
1622149551654407,4,-34,-8,-6,-3,18,-4,-43
1622149551654407,21,32,24,12,-9,-27,-6,26
1622149551669033,-4,-2,-5,3,-23,26,1,11
1622149551669033,13,22,7,-5,-1,38,23,10
1622149551677218,-8,-8,-6,-13,5,-15,14,20
1622149551677218,-2,-28,-1,13,13,-18,-8,-13
1622149551691889,-14,8,-5,-31,9,-9,4,9
1622149551691889,14,-1,15,40,-43,-3,-20,-27
1622149551692887,-12,-8,-7,-25,23,11,20,9
1622149551692887,8,11,7,38,-4,-4,-9,-8
1622149551705763,-18,-10,-12,-11,1,-18,-15,-11
1622149551705763,-14,10,-8,-10,21,2,-5,-34
1622149551713765,-5,-23,-12,-17,-13,12,-15,10
1622149551713765,6,44,11,-8,-14,-3,32,-3
1622149551728701,0,-14,-7,-1,4,-14,-27,-25
1622149551728701,1,1,11,4,2,7,23,31
1622149551736704,-6,-1,-9,-9,-37,-12,-16,-5
1622149551736704,8,-20,-4,-3,5,-12,-19,-30
1622149551752192,1,9,5,4,31,9,25,34
1622149551752192,-21,-8,-6,-5,-4,0,-49,-3
1622149551752192,16,3,10,14,11,-12,43,-39
1622149551752192,-8,-15,-18,-5,-20,-15,2,18
1622149551765668,2,-7,28,39,5,21,-2,-12
1622149551765668,-8,5,-12,-12,-13,-6,9,-16
1622149551774751,5,5,28,43,32,-20,-9,50
1622149551774751,8,3,-13,-12,18,5,-15,-8
1622149551788890,-6,-7,-7,-5,-26,-14,20,-43
1622149551788890,-13,2,-3,-20,-13,-14,-11,-6
1622149551797272,-13,2,-2,1,25,25,5,12
1622149551797272,11,-15,-3,-18,-30,-22,-15,-2
1622149551820094,-12,10,-14,-16,3,12,8,6
1622149551820094,22,-2,26,30,-1,-13,-23,-28
1622149551821002,-10,-3,-2,-8,9,16,17,-5
1622149551821002,-14,21,6,7,-4,-11,3,11
1622149551826007,12,8,-5,-15,-2,11,9,4
1622149551826007,-3,-9,-3,15,12,-12,-17,18
1622149551834673,7,0,-11,-24,-7,10,-22,-48
1622149551834673,-1,-8,13,15,10,-32,23,8
1622149551848667,1,4,-9,9,-14,-8,14,17
1622149551848667,-4,-4,-8,-24,2,9,14,-4
1622149551856514,4,11,33,37,15,-19,9,17
1622149551856514,-9,0,-20,-22,7,22,-13,0
1622149551871875,0,3,5,6,2,1,-4,-14
1622149551871875,5,-16,2,0,-9,-20,-5,19
1622149551872877,-19,-5,-14,-8,-25,20,-20,-29
1622149551872877,17,-10,-4,-9,18,-9,-9,-43
1622149551886557,-4,9,10,14,-7,18,19,59
1622149551886557,-3,-7,-15,3,5,-23,10,2
1622149551894563,-21,7,-5,-5,4,25,4,-16
1622149551894563,2,-21,4,1,-11,0,-7,18
1622149551917932,11,2,-14,-31,-11,-8,-3,-26
1622149551917932,6,3,9,22,14,-12,33,3
1622149551917932,0,1,-4,-5,-5,16,13,16
1622149551917932,-12,-18,0,-3,0,3,0,-8
1622149551932185,-4,-4,-9,-28,0,-8,-31,-6
1622149551932185,4,2,-14,-4,-28,-3,-13,14
1622149551932328,11,5,23,1,7,-13,19,-3
1622149551932328,-7,2,-5,-3,-16,17,-11,-11
1622149551946570,5,2,11,8,26,-2,-7,5
1622149551946570,-7,-4,-8,-19,-35,-2,19,-19
1622149551954686,-2,2,-18,-4,7,-15,-29,19
1622149551954686,-5,1,14,8,-10,42,28,-6
1622149551969483,-6,-11,-9,0,8,-2,5,23
1622149551969483,7,10,0,0,6,7,24,-43
1622149551977258,-8,-21,-3,-4,-14,-10,-9,10
1622149551977258,-4,37,-1,-6,17,5,-31,-21
1622149551991799,23,5,-5,-3,-10,-17,32,-7
1622149551991799,-9,-17,6,-2,14,22,-21,6
1622149551992822,4,3,-6,-1,-19,-7,12,-13
1622149551992822,-4,-13,-1,12,20,-8,-2,26
1622149552005763,-7,-4,7,8,-56,-12,-18,-24
1622149552005763,5,12,-13,-21,0,-8,4,16
1622149552014755,-1,-7,-10,3,17,-1,0,-4
1622149552014755,-3,-8,-10,-16,-24,-5,6,8
1622149552028994,0,-8,-2,2,20,5,2,-9
1622149552028994,-5,-3,1,0,-24,-12,-16,-16
1622149552036904,4,24,-9,-8,21,10,22,29
1622149552036904,3,-12,0,-8,-14,-27,-24,0
1622149552051867,-11,14,-1,2,19,8,-2,4
1622149552051867,-3,-13,3,-10,-11,16,16,-8
1622149552052864,-5,-1,-1,9,-16,-3,-32,6
1622149552052864,-1,4,10,1,16,-4,30,9
1622149552067194,9,-2,-2,7,-27,-9,-16,8
1622149552067194,0,-3,16,13,41,4,21,-1
1622149552073889,7,2,4,2,-18,-13,-14,-3
1622149552073889,-9,-3,-1,8,-12,-11,-5,3
1622149552088921,2,-6,-2,-2,25,19,1,-19
1622149552088921,-3,-2,-12,-14,5,-1,-21,8
1622149552096926,4,2,7,9,-76,-26,19,3
1622149552096926,1,-5,10,4,23,20,2,-1
1622149552112039,-5,-12,-2,1,36,-2,-21,-5
1622149552112039,15,34,12,6,-8,13,-2,-9
1622149552112993,1,-4,-1,-18,4,6,-9,5
1622149552112993,-10,0,-11,3,-12,-1,40,-7
1622149552125788,17,-8,5,6,-4,22,-13,50
1622149552125788,-21,-16,-4,-5,-6,-28,30,-12
1622149552134708,-9,25,-3,-3,18,22,-22,-65
1622149552134708,13,-5,-2,-7,-5,10,16,27
1622149552148702,7,5,-4,-10,-4,-2,8,-9
1622149552148702,-12,-12,-1,5,2,-26,-36,-7
1622149552156678,-1,-17,-11,-13,-4,-13,1,16
1622149552156678,-10,2,10,20,10,-1,-8,-11
1622149552171833,-4,-2,-10,-13,-8,-11,10,-11
1622149552171833,2,-8,-5,14,-1,-9,-26,15
1622149552172831,4,-6,2,1,-1,-4,24,8
1622149552172831,1,1,4,16,-14,2,1,-11
1622149552185763,0,-21,-6,-19,-14,-24,-32,25
1622149552185763,-7,54,-4,-7,15,28,13,6
1622149552193768,11,-11,1,-6,26,-32,-16,-3
1622149552193768,-2,-7,-15,-7,2,47,49,10
1622149552209063,-9,6,11,15,5,-22,-32,-13
1622149552209063,5,-14,-4,2,-17,12,21,20
1622149552217071,-1,2,0,5,23,-9,2,-3
1622149552217071,2,-1,-13,-23,-3,-26,-17,5
1622149552232232,-7,16,39,34,-10,6,-6,-9
1622149552232232,-3,-11,-9,-10,5,25,-25,-16
1622149552232517,10,-3,-1,3,-7,-3,19,20
1622149552232517,24,-6,-12,-15,5,-10,-24,0
1622149552247306,-30,-5,-10,-8,-9,-5,30,18
1622149552247306,6,15,10,10,5,-9,-23,-23
1622149552254608,0,0,4,1,4,13,23,5
1622149552254608,-12,-2,-9,-3,9,9,-14,-5
1622149552269034,14,12,13,4,-18,-15,3,-10
1622149552269034,5,-15,-6,-15,-1,9,-26,3
1622149552277286,-12,-11,-18,-17,1,-8,42,40
1622149552277286,3,-5,-1,-5,-9,-8,-13,-33
1622149552291876,-16,7,6,32,-1,8,-1,-12
1622149552291876,-1,-7,-13,-25,-14,-5,-3,-6
1622149552292875,0,6,3,20,10,-9,-50,-28
1622149552292875,-6,-23,-6,-14,12,31,11,48
1622149552305788,4,4,-8,-13,-26,-23,-6,-7
1622149552305788,-4,-9,2,6,-12,-18,16,-18
1622149552314762,9,-9,-4,0,-4,28,3,17
1622149552314762,-6,15,-5,-17,-3,-32,-5,1
1622149552329065,-2,7,25,30,-3,23,-10,-14
1622149552329065,18,-12,-14,-25,18,-17,37,48
1622149552336907,-20,-8,12,7,-22,9,-22,-21
1622149552336907,-6,6,23,58,21,-12,-2,-5
1622149552350969,-4,-2,-18,-23,14,26,7,-23
1622149552350969,7,-7,2,16,5,-1,5,32
1622149552359808,-3,13,-5,-31,-29,-26,-23,-28
1622149552359808,-11,6,6,9,-2,6,17,7
1622149552366565,20,9,-11,-12,5,2,-23,4
1622149552366565,-3,-8,11,21,15,-7,-9,-22
1622149552374759,-9,6,-17,-21,9,6,14,4
1622149552374759,-1,-14,6,6,-17,15,-24,0
1622149552388446,-8,-13,-6,-9,1,-17,7,-8
1622149552388446,-1,2,-2,0,-2,11,16,26
1622149552397278,10,-8,6,7,3,13,-41,-69
1622149552397278,8,17,-3,-7,5,3,47,2
1622149552411564,-6,-5,-27,-37,-36,-13,-43,5
1622149552411564,9,1,23,35,15,-5,12,-3
1622149552419776,-4,-5,-6,4,35,35,18,10
1622149552419776,-12,-9,-9,-9,-31,-28,-31,-23
1622149552426620,-1,1,-6,-12,34,3,4,-6
1622149552426620,-7,-7,-1,-8,-29,14,0,-5
1622149552434050,8,-7,-1,9,2,20,41,10
1622149552434050,14,2,-1,-12,0,-36,-54,5
1622149552449037,-4,24,-2,7,10,-16,47,41
1622149552449037,-8,3,0,-13,-10,-10,-13,-31
1622149552457072,8,6,8,20,14,-1,-4,18
1622149552457072,-2,-3,-6,-3,-8,-5,-15,-10
1622149552470870,5,-14,-6,-8,-15,20,29,28
1622149552470870,1,-1,9,25,20,0,23,-5
1622149552479131,-4,6,-6,-6,13,-1,-5,14
1622149552479131,-8,-5,5,1,-14,-9,-13,-13
1622149552485879,1,-2,-1,-5,6,-26,-59,-18
1622149552485879,-8,-4,-15,-26,-17,-6,27,-1
1622149552493884,1,-10,-2,8,-13,-1,-13,-2
1622149552493884,-6,13,3,-9,-10,16,15,3
1622149552508977,-11,-13,8,4,17,0,2,-13
1622149552508977,-4,6,-5,-8,-7,-1,-17,-13
1622149552517268,15,6,10,29,-24,-24,23,52
1622149552517268,1,-4,-4,-1,46,10,12,13
1622149552531535,-2,-1,1,-6,-51,0,-5,-19
1622149552531535,2,2,-2,6,19,4,0,12
1622149552538878,-4,-9,-2,-2,-9,-1,-2,-16
1622149552538878,1,1,-3,-8,6,3,-30,-12
1622149552562887,3,-5,8,22,8,12,35,7
1622149552562887,-8,3,-6,-26,6,15,15,-1
1622149552562887,-3,4,0,-2,-12,-9,10,-7
1622149552562887,7,-3,-1,-1,-21,0,-36,-20
1622149552569014,-4,-24,-6,-4,18,9,7,21
1622149552569014,-9,-8,-9,-3,12,2,-27,-21
1622149552576267,9,27,5,-2,-1,-4,15,15
1622149552576267,-4,5,2,3,23,-1,-3,-13
1622149552590907,0,-16,-13,-24,-47,-9,3,-7
1622149552590907,-3,-8,-9,8,10,3,5,5
1622149552599807,-3,13,22,-6,-5,-1,-21,11
1622149552599807,-7,-5,-8,27,-9,-16,8,1
1622149552614761,6,7,9,-6,27,-11,-24,-12
1622149552614761,-5,-5,2,-8,-18,18,18,14
1622149552614761,-6,-4,-3,-10,4,-25,-32,-26
1622149552614761,-4,-18,-3,-9,-14,4,40,11
1622149552629065,16,18,-8,-6,3,-19,-21,11
1622149552629065,-5,0,4,8,-6,4,27,-34
1622149552636909,-8,-12,5,4,5,-26,-36,-12
1622149552636909,12,7,0,-11,-5,1,16,11
1622149552650999,-4,-2,-8,7,19,30,13,9
1622149552650999,10,9,12,7,-9,-29,-34,1
1622149552659796,-7,-9,-13,0,-22,-2,17,10
1622149552659796,20,-7,-1,4,13,14,-10,-1
1622149552674783,-33,3,5,6,14,7,4,-34
1622149552674783,-6,-15,-17,-7,-22,-11,-4,15
1622149552674783,2,1,12,-9,23,5,13,3
1622149552674783,4,2,-4,5,-13,-9,-18,24
1622149552688907,-41,7,3,9,11,0,3,-34
1622149552688907,68,-1,5,-4,-5,6,1,21
1622149552696911,-16,-10,-18,-14,-17,-6,-21,-22
1622149552696911,3,-6,5,-16,-11,-5,-7,29
1622149552711480,4,5,10,17,24,-10,33,-14
1622149552711480,-17,-4,-3,-11,-17,-18,-16,-1
1622149552719821,0,5,-6,30,4,26,26,-1
1622149552719821,13,4,13,-6,-2,-5,0,10
1622149552734673,-4,-12,-11,-12,-12,-15,-20,-9
1622149552734673,-4,14,3,-3,11,17,13,32
1622149552734673,32,0,-5,-16,10,-13,-25,-41
1622149552734673,-42,-5,6,4,-3,15,11,-21
1622149552748663,13,-11,-1,7,2,-3,-11,17
1622149552748663,-11,5,0,3,22,2,-20,-5
1622149552756537,1,-7,-13,-12,-24,-2,61,31
1622149552756537,2,6,9,8,26,-35,-32,-10
1622149552770883,8,-1,-11,-19,-24,26,0,8
1622149552770883,-13,13,6,12,-23,-22,-24,-8
1622149552779784,-2,0,-5,-8,14,27,8,-1
1622149552779784,-23,-4,-11,-6,5,1,27,-20
1622149552793856,23,8,3,2,-22,-12,-4,28
1622149552793856,-12,-13,-3,-1,11,-18,3,-22
1622149552794876,0,-8,2,6,-7,-12,-28,11
1622149552794876,11,7,-12,-11,-1,15,12,-10
1622149552808839,-11,-3,4,7,50,8,-6,8
1622149552808839,-11,-10,-9,-27,-102,-1,-2,-10
1622149552816936,-5,0,8,16,49,2,-3,2
1622149552816936,4,1,0,-6,-25,-6,9,13
1622149552839957,6,2,-11,-2,6,1,-14,-31
1622149552839957,11,2,20,22,27,11,4,25
1622149552840924,-14,-15,-10,-24,-23,-37,-4,-7
1622149552840924,0,15,4,7,-10,18,17,4
1622149552854450,-3,-3,0,2,7,1,-28,-12
1622149552854450,-2,4,-4,-4,8,10,17,-2
1622149552855447,-5,-8,-7,-13,-8,0,-12,7
1622149552855447,4,1,11,38,-2,4,30,9
1622149552868979,4,6,17,5,19,-9,11,15
1622149552868979,-6,-8,-14,-8,-3,1,-21,6
1622149552876796,4,12,3,5,41,-5,-29,-17
1622149552876796,-4,-8,-12,-17,-43,-7,21,-2
1622149552890802,-3,4,10,-12,-6,-3,-23,-25
1622149552890802,13,-4,2,27,-1,0,-17,-3
1622149552898777,-21,1,5,2,28,6,4,-25
1622149552898777,24,-4,-13,-19,-6,0,5,40
1622149552914758,10,3,1,0,-25,-15,-4,13
1622149552914758,0,-11,-7,-9,33,8,18,1
1622149552914758,-10,9,-4,-10,-50,1,-4,-12
1622149552914758,3,3,10,20,34,-26,-8,6
1622149552929094,-4,-21,-19,-9,-42,23,25,8
1622149552929094,3,24,0,-13,45,-5,-1,-8
1622149552936443,3,-8,-3,1,-19,7,3,18
1622149552936443,-8,-2,-3,-2,-1,0,-26,-20
1622149552950630,1,4,5,16,5,-9,3,-16
1622149552950630,-11,-10,-4,-2,1,3,7,14
1622149552959800,7,-9,-6,-9,-4,-3,-26,-8
1622149552959800,-10,1,4,-12,-19,4,29,-12
1622149552974763,-2,-17,-12,4,-4,5,-3,-24
1622149552974763,18,20,-3,4,2,-24,-5,-8
1622149552974763,-24,-4,13,4,4,-1,6,-2
1622149552974763,-5,3,-5,-6,9,8,-32,9
1622149552988839,7,-1,-2,7,17,3,14,14
1622149552988839,2,-9,-14,-26,-39,-4,-3,-16
1622149552996844,10,1,11,15,21,3,37,14
1622149552996844,-2,-5,-9,8,2,0,-35,-20
1622149553010846,-4,4,11,-4,5,6,-10,17
1622149553010846,0,18,15,6,3,4,1,11
1622149553019728,3,1,-10,-12,-7,-8,11,-1
1622149553019728,-13,-16,-13,-16,-17,-3,-20,-15
1622149553034673,5,15,18,19,10,-7,30,17
1622149553034673,-8,-22,-7,11,-39,-24,-60,-30
1622149553034673,4,8,-3,-7,3,4,48,27
1622149553034673,-1,0,-2,-4,17,21,25,-3
1622149553049677,-8,-3,-11,-8,-3,-32,-47,-18
1622149553049677,-8,-9,5,-3,-16,2,10,33
1622149553056645,5,1,2,-4,-14,6,6,-10
1622149553056645,-12,6,8,23,34,-9,1,1
1622149553071245,21,-21,-6,-12,-41,-4,-3,-13
1622149553071245,-9,15,-5,-11,26,7,21,14
1622149553079766,1,9,-8,-3,-9,22,-34,-24
1622149553079766,-15,-5,4,-1,6,-12,6,5
1622149553094258,13,2,-12,-16,-16,13,-1,11
1622149553094258,-8,-2,3,5,18,-35,-12,-2
1622149553095231,-1,-8,-9,-6,-10,22,25,-1
1622149553095231,-7,-1,-6,-14,-7,-32,-33,2
1622149553108914,14,9,9,13,10,-27,-12,-8
1622149553108914,-5,-20,-10,-7,-18,0,6,3
1622149553117323,16,18,13,5,13,17,34,21
1622149553117323,-10,-2,1,16,10,1,-2,-43
1622149553131584,3,3,6,-2,3,12,27,55
1622149553131584,-7,-4,-7,3,-10,2,13,-27
1622149553138900,0,-12,8,25,-2,-20,-49,-3
1622149553138900,5,4,-3,-14,3,2,25,8
1622149553154419,-13,-5,-12,-5,-6,20,9,-4
1622149553154419,5,-8,4,0,49,2,-16,-13
1622149553155440,-6,11,3,4,-36,20,-12,14
1622149553155440,11,-6,-2,1,-15,-19,18,5
1622149553169056,-13,-3,-4,-7,9,-21,-21,-23
1622149553169056,-1,-7,1,3,6,27,40,20
1622149553177205,2,1,-24,-36,1,-35,-41,9
1622149553177205,16,4,49,37,2,23,8,-28
1622149553190827,-11,15,-3,11,23,-6,-6,6
1622149553190827,26,0,1,4,-31,-6,-13,0
1622149553199801,-24,-9,-9,-10,-7,-12,18,10
1622149553199801,-10,-12,-28,-30,-7,0,-19,0
1622149553214750,3,3,22,27,27,5,6,-4
1622149553214750,-11,8,4,3,-9,6,11,-6
1622149553214750,11,-8,1,-6,-1,13,-1,-4
1622149553214750,-2,-3,-16,-18,-24,-24,6,9
1622149553229082,-6,1,7,30,-3,21,5,-22
1622149553229082,2,-6,2,1,4,-19,-1,30
1622149553236887,-2,-8,2,7,18,5,-5,-65
1622149553236887,-16,16,3,-1,-12,-15,-17,-27
1622149553251583,19,-16,-19,-20,-18,19,-10,30
1622149553251583,-3,9,4,-7,-1,0,-21,-36
1622149553259823,10,-13,0,3,-15,-37,33,17
1622149553259823,10,-1,3,-7,39,21,-13,-8
1622149553274696,-26,-6,-11,1,-26,12,-8,-20
1622149553274696,2,6,6,7,-17,-6,20,8
1622149553274696,-9,-7,-1,4,24,-7,-18,2
1622149553274696,5,-17,-24,-35,-12,19,23,31
1622149553288891,-3,6,30,35,3,6,-13,-22
1622149553288891,0,-4,-6,-10,4,3,8,16
1622149553297305,0,1,7,16,-4,-6,-8,-9
1622149553297305,7,2,-8,-5,6,8,28,37
1622149553311607,-3,6,-11,-30,-4,-12,-25,-9
1622149553311607,-7,-3,-4,3,-2,10,-11,-29
1622149553319142,-1,2,2,1,0,6,9,15
1622149553319142,1,4,5,10,5,-1,-19,-4
1622149553334066,-5,-1,-4,-16,-7,-3,15,-13
1622149553334066,-3,-3,-5,3,12,4,-13,-16
1622149553342047,9,0,-6,-10,-1,-18,-18,-2
1622149553342047,1,5,1,14,33,37,38,32
1622149553349107,-22,-3,-5,-17,-41,-14,-17,-41
1622149553349107,-4,-2,-3,-3,11,-8,1,16
1622149553357163,14,6,20,15,3,6,29,15
1622149553357163,2,4,11,20,-12,-26,-36,-2
1622149553370871,6,-15,-12,-13,25,10,22,9
1622149553370871,-11,11,-10,-9,-21,5,8,-28
1622149553379775,-20,-8,-7,-8,28,-16,-49,17
1622149553379775,15,19,-6,3,-67,-2,16,-4
1622149553393846,-7,6,-4,-21,18,-16,3,15
1622149553393846,4,-11,6,25,7,19,-2,-14
1622149553402106,0,-7,4,7,-6,16,5,-2
1622149553402106,-7,-5,-12,-16,23,-12,-47,15
1622149553408861,3,-9,8,2,-40,1,65,8
1622149553408861,-8,29,5,-9,29,-32,-21,16
1622149553416976,6,-8,-8,-1,0,31,49,-4
1622149553416976,-11,-11,-13,-17,-39,-6,-36,-10
1622149553431607,17,-3,-3,-5,13,-12,-17,-30
1622149553431607,-3,-7,-1,16,13,15,15,33
1622149553439140,-13,14,1,-20,-21,13,2,15
1622149553439140,5,0,16,16,22,-29,0,-49
1622149553453826,14,0,-11,-4,-9,42,-34,11
1622149553453826,-11,-8,1,-4,-12,7,0,-4
1622149553462241,2,3,-10,15,5,-13,4,-2
1622149553462241,-10,-5,1,-5,2,0,-1,-1
1622149553477829,-2,8,1,13,17,5,3,16
1622149553477829,5,-11,0,-23,-17,-1,4,3
1622149553478155,-3,9,-15,-4,-3,1,3,-4
1622149553478155,0,0,31,24,16,18,-10,-3
1622149553490842,-9,-2,-5,4,9,-15,33,12
1622149553490842,29,-5,-4,-8,-17,2,-24,-4
1622149553499816,-25,-25,-11,-11,14,2,-50,-53
1622149553499816,5,12,-12,-18,-43,8,38,41
1622149553513777,-1,3,15,5,24,-18,-39,-33
1622149553513777,3,4,11,11,13,8,20,8
1622149553521733,11,-10,4,13,0,-10,4,2
1622149553521733,-3,14,-6,-13,-29,1,-18,-17
1622149553537688,1,-2,4,-5,11,1,20,5
1622149553537688,0,-5,-14,-6,-4,-7,-4,23
1622149553538713,3,-3,-11,-36,-55,-33,-14,-14
1622149553538713,-9,-1,30,70,61,0,6,11
1622149553550755,1,2,-8,-17,-7,-6,9,11
1622149553550755,-6,-11,-6,2,-4,5,8,-49
1622149553559754,1,3,-7,-14,3,-13,6,57
1622149553559754,1,-6,0,-6,6,2,-12,-29
1622149553573692,19,3,-1,2,-7,-6,-6,5
1622149553573692,-26,-13,-2,5,25,-14,11,-1
1622149553581668,-8,1,-3,-9,-44,-4,-23,-22
1622149553581668,2,-6,-19,-23,3,8,7,1
1622149553597649,-5,0,17,0,18,-9,9,16
1622149553597649,2,3,-5,12,-18,23,2,-24
1622149553598660,3,4,8,6,-2,-19,-28,11
1622149553598660,-2,-9,-17,-19,3,19,36,-1
1622149553611587,-9,-6,-10,-9,8,-8,-13,4
1622149553611587,4,-9,3,-7,-42,-7,-12,21
1622149553619566,-3,48,26,23,19,26,16,6
1622149553619566,5,-19,-5,-15,-21,-8,-7,-4
1622149553633536,-6,-1,-13,0,4,8,4,-4
1622149553633536,2,-10,8,6,18,-6,-36,11
1622149553641519,-6,0,-4,6,4,-3,18,0
1622149553641519,13,-9,-8,-29,-3,-4,-11,-4
1622149553657739,-26,13,-14,1,-7,-2,-5,9
1622149553657739,7,7,27,43,19,11,45,4
1622149553658778,2,-19,-14,-20,-2,11,0,-23
1622149553658778,-16,10,3,16,-15,-21,-24,-11
1622149553670749,19,-13,-7,-10,-4,-6,7,-1
1622149553670749,-5,10,-8,-12,-13,-25,-19,-4
1622149553679784,-6,-16,-3,7,32,7,5,-32
1622149553679784,-3,-3,4,-9,-38,6,9,0
1622149553693753,-3,2,-3,2,6,-2,7,18
1622149553693753,-4,6,-4,2,10,-4,-16,-15
1622149553701768,9,-19,-3,7,6,10,11,12
1622149553701768,-9,14,-7,-8,11,15,39,4
1622149553717915,16,-1,4,-23,-35,-34,-45,12
1622149553717915,17,3,-3,-5,12,18,24,-2
1622149553717915,-15,-5,11,18,-21,-34,-19,4
1622149553717915,1,-7,-8,19,24,41,26,-6
1622149553730875,-22,-3,-4,-1,7,-14,-9,-4
1622149553730875,11,6,-3,-13,-15,5,9,-10
1622149553738857,18,4,8,-4,0,-9,-12,34
1622149553738857,-7,-4,6,-3,24,2,3,-59
1622149553753792,0,-2,-4,3,-49,17,4,40
1622149553753792,-6,-3,1,-7,5,-28,-7,-1
1622149553761847,2,-2,-13,1,-5,38,16,6
1622149553761847,0,-1,9,-9,21,-7,-22,17
1622149553776908,-10,-8,-11,-8,-25,-9,-1,-26
1622149553776908,1,13,18,25,-9,-4,11,-5
1622149553777907,-7,7,-9,-24,-20,3,-34,-26
1622149553777907,5,-5,-13,-14,11,-4,19,16
1622149553791191,5,4,9,9,16,-8,30,-13
1622149553791191,-21,-11,-6,-10,8,-1,-21,42
1622149553799804,-14,-6,0,-8,12,-8,-11,-62
1622149553799804,24,-3,-12,11,-7,-16,-20,0
1622149553814137,-10,-1,8,-6,-27,7,-11,-10
1622149553814137,-11,-2,-10,-11,7,14,35,-13
1622149553822127,19,-4,5,4,9,-12,-1,35
1622149553822127,-19,-2,-13,-18,3,-11,-20,-4
1622149553837080,9,5,19,43,3,14,2,10
1622149553837080,-2,-4,-12,-27,-10,-1,5,-27
1622149553838087,-7,-1,3,9,35,-5,19,1
1622149553838087,10,-10,5,17,-73,-8,16,-6
1622149553851051,-5,7,-8,-8,34,12,-30,31
1622149553851051,-1,3,1,-6,0,-25,-21,-8
1622149553859028,0,2,3,3,12,25,19,8
1622149553859028,18,-5,-10,-13,2,-6,-7,29
1622149553873989,-26,-10,-9,3,8,-6,-7,-42
1622149553873989,2,-5,8,-14,18,13,-20,-8
1622149553882244,8,-1,-7,-14,-31,3,20,22
1622149553882244,-5,8,8,36,21,-12,-32,3
1622149553897072,5,-6,1,-18,21,-8,25,-7
1622149553897072,-7,13,-12,2,-24,10,10,-1
1622149553898116,-5,-9,-1,15,1,6,-19,-16
1622149553898116,-9,-5,7,2,8,-10,-23,8
1622149553911504,5,6,-7,-15,4,14,10,0
1622149553911504,-14,-10,-3,5,-15,-31,-38,-36
1622149553919820,-1,2,-2,-8,-11,0,16,-30
1622149553919820,-4,-3,-2,10,-15,17,10,33
1622149553933375,7,0,9,-5,25,-20,-11,-2
1622149553933375,-3,-3,-9,-1,-9,10,1,12
1622149553941352,6,6,29,26,-10,-15,3,9
1622149553941352,2,1,0,-19,14,8,15,0
1622149553957289,-12,-17,-12,-2,-24,7,-12,-8
1622149553957289,10,5,6,-11,5,4,23,-5
1622149553957289,-8,-3,-14,-9,7,-17,-11,31
1622149553957289,8,6,20,6,11,15,-1,16
1622149553971384,-1,-3,-7,4,-12,-2,32,-8
1622149553971384,-4,-6,-6,-2,-37,-9,-23,7
1622149553979776,-1,-5,-7,-7,7,30,-10,-1
1622149553979776,-11,-17,1,-11,10,-14,54,22
1622149553993826,9,16,1,1,4,-11,-28,-16
1622149553993826,4,10,8,14,-9,14,-2,7
1622149554002299,3,-3,-10,-13,4,-16,0,-3
1622149554002299,-33,2,3,-7,-19,-12,-20,-17
1622149554016620,35,-15,-6,-5,2,-4,10,1
1622149554016620,-6,10,5,19,28,14,6,10
1622149554032818,-3,6,0,-2,-61,-31,1,-4
1622149554032818,-3,-4,-5,2,48,17,-34,-30
1622149554033793,-7,-4,0,-3,-35,-14,23,-28
1622149554033793,5,5,-2,-13,15,-8,-13,8
1622149554039780,1,-3,1,4,7,6,8,13
1622149554039780,-3,0,-2,-1,-9,-6,-7,-24
1622149554053854,-9,5,7,19,8,23,30,35
1622149554053854,8,-14,-10,-12,-20,-13,-57,-37
1622149554062366,-7,3,-3,1,17,2,1,-9
1622149554062366,0,-12,-3,-7,-46,-1,4,-26
1622149554075802,-9,-1,-7,-19,12,2,-11,44
1622149554075802,4,-9,2,15,-2,4,-18,13
1622149554084783,-15,12,8,3,20,5,37,-19
1622149554084783,18,2,-3,0,20,-16,-10,7
1622149554090778,-9,0,-3,-7,-30,4,2,-39
1622149554090778,-17,-14,-14,-7,-9,-17,-20,0
1622149554099770,-1,5,8,14,13,5,-17,5
1622149554099770,23,1,-2,15,-3,-14,-16,25
1622149554113717,-6,-3,3,9,13,19,34,0
1622149554113717,13,11,-5,-7,21,-3,-6,-24
1622149554122810,-9,-7,-5,-20,-16,-13,9,-1
1622149554122810,0,5,4,18,2,-6,-8,2
1622149554135834,-6,0,-5,-11,28,-3,-17,1
1622149554135834,-3,-14,-3,13,-45,-17,4,11
1622149554144837,17,-11,-7,-1,25,12,25,25
1622149554144837,-10,27,-3,-15,-12,4,-2,10
1622149554150823,3,-10,-7,1,1,-8,-26,-28
1622149554150823,26,0,-5,-14,19,15,6,-10
1622149554159773,-39,-10,4,28,-16,1,10,3
1622149554159773,19,-11,-10,0,9,-14,1,18
1622149554174008,-1,8,0,-4,-19,1,-18,-24
1622149554174008,-4,-4,0,-8,31,21,57,36
1622149554183409,9,3,1,-8,-7,-18,-13,-20
1622149554183409,-10,-2,3,9,-32,-6,-27,-10
1622149554196681,2,-3,0,-6,20,26,-20,6
1622149554196681,-5,12,6,12,-6,-14,14,-25
1622149554204662,-1,-3,-3,-18,9,23,-7,-9
1622149554204662,-11,-1,-11,-11,6,3,31,10
1622149554211588,6,-8,-2,-6,-6,-28,-14,9
1622149554211588,-5,-1,1,-7,-10,9,13,23
1622149554219745,3,13,14,11,18,-8,-21,-14
1622149554219745,-22,9,-4,-4,-18,2,0,-21
1622149554234062,18,-3,2,-7,14,-1,8,7
1622149554234062,-23,-5,-5,-12,1,-4,10,1
1622149554243042,11,-8,-20,-12,-29,-1,-45,-10
1622149554243042,-8,7,18,2,41,-10,4,-12
1622149554256090,-1,-5,3,-9,-56,2,21,8
1622149554256090,7,0,2,27,12,9,17,4
1622149554264826,3,5,7,10,7,18,5,10
1622149554264826,-6,-14,-12,-6,27,-4,-31,-28
1622149554270864,0,10,10,11,7,0,10,7
1622149554270864,-2,-9,-7,-19,-21,-3,-9,-18
1622149554279836,3,23,15,23,12,-5,-11,15
1622149554279836,7,-3,-7,-10,-19,17,26,2
1622149554293848,1,5,13,14,12,-37,5,15
1622149554293848,-13,9,-5,-9,4,4,-32,-22
1622149554302824,-5,-16,-9,-5,7,-8,29,12
1622149554302824,3,4,6,7,-15,-22,-29,-3
1622149554316537,-4,7,10,25,8,8,9,-3
1622149554316537,-1,-6,2,-3,3,6,-13,-31
1622149554349773,-10,-4,-9,-11,4,-2,21,43
1622149554349773,45,-1,-9,-15,2,3,-19,-16
1622149554350948,-14,-2,-1,9,-8,20,28,-7
1622149554350948,18,3,11,-5,17,-29,10,20
1622149554353943,-4,-10,-8,-8,-15,4,-23,-20
1622149554353943,-3,5,-2,-6,-16,1,30,10
1622149554354940,-4,-5,-12,-9,38,8,-30,-10
1622149554354940,2,2,1,-4,-14,-4,16,11
1622149554362490,-5,-8,-9,-2,-16,-32,-29,-26
1622149554362490,-8,-3,7,-1,17,22,27,14
1622149554376627,1,0,-8,5,-24,-23,-3,-9
1622149554376627,-9,-1,3,2,-21,-5,-27,22
1622149554384823,5,-3,-2,0,17,11,4,-14
1622149554384823,-4,-7,-6,-6,-31,13,3,-5
1622149554390831,-1,3,4,3,15,-5,-5,5
1622149554390831,1,-6,-2,4,-2,14,35,29
1622149554399824,6,5,-1,4,28,-10,-21,-1
1622149554399824,-12,-7,5,7,6,-28,-8,-13
1622149554414172,-6,-4,-10,-12,-48,11,-1,-7
1622149554414172,0,-3,3,24,29,-8,-12,6
1622149554422850,2,-2,-3,-12,-43,-13,7,-10
1622149554422850,4,-1,-9,-15,15,13,22,2
1622149554436450,-12,0,25,22,36,-7,-55,39
1622149554436450,-14,7,-6,-10,-37,9,-24,-37
1622149554444810,12,-5,-1,13,35,21,47,13
1622149554444810,-2,-2,5,10,6,4,-23,-40
1622149554468015,3,-10,-19,-35,-13,16,20,-10
1622149554468015,17,5,20,8,-8,-21,-17,5
1622149554469015,-35,-3,-2,5,21,23,7,-38
1622149554469015,14,-1,-1,-6,-13,5,5,49
1622149554474026,-9,-10,-11,-10,-12,-20,-9,-14
1622149554474026,-2,-14,-10,-21,1,6,-6,-6
1622149554482341,7,17,2,11,-13,-8,13,16
1622149554482341,-12,-10,2,-2,10,14,18,-16
1622149554496289,5,8,-2,7,5,10,-27,-3
1622149554496289,-11,-6,-9,-7,-4,-17,5,-4
1622149554505321,16,-10,-6,-16,-13,16,30,31
1622149554505321,-11,12,-3,-13,-22,-33,-71,-10
1622149554520422,-1,4,1,8,9,-6,6,6
1622149554520422,5,-7,-7,9,37,19,24,-2
1622149554521419,5,8,15,-12,-31,-23,-1,3
1622149554521419,4,-8,6,19,6,-12,11,-6
1622149554534125,-4,-4,-9,-14,-32,-1,-10,-10
1622149554534125,-27,-8,-4,1,18,-8,-25,1
1622149554543118,21,5,-4,-11,-1,17,-1,-9
1622149554543118,-7,-6,-5,-5,-6,-17,13,6
1622149554556448,1,5,5,8,-13,-3,-7,-15
1622149554556448,1,1,-6,-8,13,6,41,10
1622149554572804,2,-5,-1,4,-2,-15,-58,6
1622149554572804,-13,5,-7,-10,-9,4,-2,20
1622149554579890,-1,-3,2,15,54,15,35,-22
1622149554579890,14,15,2,-13,-51,-3,-2,4
1622149554581908,1,-13,-9,-3,-3,-8,12,2
1622149554581908,11,18,13,16,32,21,28,19
1622149554594169,-18,-6,-10,-18,7,-20,-9,2
1622149554594169,17,-8,3,-10,-7,21,13,3
1622149554602352,-6,9,-13,-5,5,5,-7,-14
1622149554602352,-10,-12,2,3,-36,-13,-45,5
1622149554616702,13,4,-9,-15,-4,-1,56,22
1622149554616702,-9,-7,-2,4,-7,4,8,-9
1622149554624820,-12,11,-10,-15,9,-11,-29,-11
1622149554624820,22,-8,-1,7,-5,-7,19,-19
1622149554639885,5,13,2,1,-5,30,-30,-19
1622149554639885,-5,4,-7,-6,7,-35,-17,-6
1622149554641880,-15,-18,7,2,-15,1,5,3
1622149554641880,-8,4,-7,-3,-4,24,42,-3
1622149554653711,5,-6,17,20,-38,-1,6,18
1622149554653711,16,5,2,9,24,-3,15,5
1622149554662414,-12,-5,1,-4,5,-1,-31,-1
1622149554662414,6,1,7,14,15,-3,-27,-45
1622149554676664,-3,-3,-5,-15,-3,-13,25,37
1622149554676664,-5,-1,-1,10,16,9,-15,12
1622149554684837,-4,-3,0,2,-15,-5,14,-45
1622149554684837,-9,0,-4,-5,17,-14,-4,12
1622149554699873,3,-15,-4,-19,-18,23,-6,-6
1622149554699873,-22,4,3,26,19,-14,-31,-4
1622149554701869,39,4,7,24,27,7,-1,28
1622149554701869,-19,-12,-4,-14,-52,-14,-24,-4
1622149554714131,2,0,5,11,6,-12,-25,-13
1622149554714131,-8,-5,-2,-7,16,26,32,9
1622149554723187,1,-6,-11,-8,-23,-10,0,-3
1622149554723187,4,-12,4,18,34,15,-2,9
1622149554736439,5,18,-3,9,-9,-17,6,3
1622149554736439,-5,3,0,-9,5,14,-47,-8
1622149554752359,-7,1,-4,-8,-8,-3,11,-12
1622149554752359,6,-12,-3,-4,22,9,11,23
1622149554759846,-28,5,-6,-7,3,5,14,-14
1622149554759846,11,4,-16,-19,-17,-3,-21,-3
1622149554766663,-3,-5,14,14,-6,4,-8,4
1622149554766663,-5,15,4,2,-23,13,17,6
1622149554773319,2,-12,-2,18,79,-20,-10,-7
1622149554773319,8,2,-3,7,-39,-12,22,5
1622149554790239,-4,5,-8,-22,11,33,23,25
1622149554790239,-13,13,8,15,26,-13,-36,-57
1622149554796248,-2,-10,4,5,-35,7,2,14
1622149554796248,4,2,-3,-11,-11,-12,32,3
1622149554805348,-10,-12,-16,-33,-19,-24,-9,-5
1622149554805348,-13,13,13,15,35,-3,-24,-12
1622149554819189,25,5,-7,-5,-55,-11,-17,30
1622149554819189,7,-30,-2,-8,10,7,2,-11
1622149554834705,-1,18,-2,5,2,26,30,8
1622149554834705,-2,-14,-14,-21,-10,-18,-30,-6
1622149554834705,-10,4,7,28,18,2,-18,-31
1622149554834705,4,-10,-9,-32,-40,4,14,25
1622149554842714,-6,-1,8,12,13,-6,15,-16
1622149554842714,8,3,-9,-6,-10,4,-42,13
1622149554856652,0,-3,4,-6,0,-27,43,-37
1622149554856652,6,1,9,4,-14,26,0,27
1622149554865627,5,-4,-2,4,5,8,21,-7
1622149554865627,-11,-4,2,-12,-4,6,20,33
1622149554878783,12,-6,-28,-27,13,-20,-17,-11
1622149554878783,-18,4,12,27,-6,9,13,-45
1622149554887429,8,-1,1,2,-25,-24,-69,39
1622149554887429,12,2,-5,-3,20,-1,80,7
1622149554893892,-13,-10,-11,-16,-14,-4,-36,6
1622149554893892,-14,-5,22,3,9,-18,4,-8
1622149554902232,8,10,4,12,-3,-2,-2,29
1622149554902232,6,3,-11,-14,-15,-11,-29,-57
1622149554916555,-10,-2,0,0,12,19,9,14
1622149554916555,-2,6,-17,-6,8,8,-12,-17
1622149554925778,3,6,21,21,-26,-24,0,31
1622149554925778,15,-8,-17,-30,-2,11,24,19
1622149554938888,-19,1,15,16,-24,-6,-5,2
1622149554938888,5,6,-10,-10,26,-2,-24,-7
1622149554947840,-14,-13,-8,-19,5,2,2,-24
1622149554947840,3,5,9,26,1,15,-10,6
1622149554953824,1,-12,-1,3,-5,-9,52,1
1622149554953824,6,5,0,-18,14,-17,-41,-13
1622149554962798,-2,1,-7,30,-31,-1,47,5
1622149554962798,-19,-12,11,6,12,-13,-34,-9
1622149554976648,11,18,-3,-21,-4,11,-23,-29
1622149554976648,-6,6,19,23,-21,-13,3,0
1622149554985627,-7,-15,-27,-34,41,15,1,-7
1622149554985627,-3,-1,13,41,-36,-4,21,7
1622149554998151,-10,2,0,-18,25,5,-11,10
1622149554998151,10,-7,-4,8,19,-1,5,9
1622149555007159,5,6,4,-6,-12,-23,-43,-24
1622149555007159,-4,-7,-3,-15,-25,-7,31,14
1622149555013170,-3,8,7,16,12,10,-11,18
1622149555013170,-8,-1,-1,4,-6,0,7,0
1622149555023119,0,-13,-8,-24,14,-5,-6,-5
1622149555023119,14,24,19,54,9,10,14,-5
1622149555035803,9,-1,4,4,-14,6,50,53
1622149555035803,-11,-3,-9,-7,20,-1,-67,-50
1622149555044812,-5,0,5,5,-13,11,4,-4
1622149555044812,10,-16,5,-13,7,-17,-35,9
1622149555059055,-11,12,-6,0,9,11,20,17
1622149555059055,8,-10,-5,6,-1,2,22,15
1622149555067393,-5,7,-2,-6,16,0,-29,-13
1622149555067393,0,-7,-7,-13,-22,-18,15,0
1622149555073889,16,0,-9,-4,-6,17,-12,-12
1622149555073889,-18,-11,0,10,2,-10,-21,-1
1622149555089860,1,2,2,-3,-24,5,6,-17
1622149555089860,-2,-4,-23,-22,14,-5,3,8
1622149555095869,8,-3,17,12,-12,2,-4,-39
1622149555095869,8,7,-6,-2,5,-10,16,19
1622149555105417,-3,-4,-4,0,-22,-5,-9,5
1622149555105417,-3,1,-11,-8,14,3,-24,-12
1622149555119040,-4,-4,-3,-6,2,-4,-10,12
1622149555119040,2,-2,6,3,19,2,28,-9
1622149555127426,-5,5,9,13,-31,-17,-9,8
1622149555127426,-1,13,-8,-21,24,25,11,8
1622149555133882,-5,-9,-9,-5,-15,12,13,0
1622149555133882,0,-1,3,6,1,-16,-14,5
1622149555142860,1,-9,-2,-2,12,-6,13,-11
1622149555142860,-7,4,5,1,-20,-3,9,-4
1622149555156642,0,-3,0,5,17,4,-57,2
1622149555156642,11,8,-5,-11,-14,7,57,15
1622149555165782,-6,2,7,-2,45,11,14,3
1622149555165782,-2,-5,0,11,-50,0,-7,-15
1622149555179117,-9,-6,-13,-24,-2,-10,16,-5
1622149555179117,1,4,16,29,-18,0,-22,1
1622149555187410,0,0,8,1,8,-28,2,16
1622149555187410,-2,-1,-8,9,27,28,-10,-14
1622149555193420,0,-3,-5,-14,-2,-12,16,-16
1622149555193420,-17,-12,-10,-16,-3,-3,-9,2
1622149555202353,20,17,-5,6,-15,2,13,1
1622149555202353,-7,-13,2,-12,22,-21,-4,17
1622149555216675,-2,3,0,10,-49,-15,-29,-51
1622149555216675,6,3,-7,-14,4,21,46,73
1622149555224802,5,-21,3,16,11,-7,-40,-65
1622149555224802,-7,4,-12,-14,1,9,24,22
1622149555238851,7,12,6,2,-12,-19,-23,8
1622149555238851,2,-8,0,4,13,4,-13,2
1622149555247802,-7,-17,1,-17,13,-5,58,8
1622149555247802,-2,1,-9,3,-19,7,-38,-8
1622149555262762,9,-8,0,2,44,-11,33,12
1622149555262762,3,12,7,0,-36,-13,-52,-14
1622149555263760,-12,0,3,-2,-25,20,6,5
1622149555263760,-9,-14,-1,-3,20,16,13,7
1622149555275776,-2,7,-4,-7,-3,-14,15,28
1622149555275776,0,-6,-3,3,28,-13,-40,-33
1622149555284809,11,3,9,19,-17,5,10,-15
1622149555284809,19,4,5,5,-7,-16,0,22
1622149555298784,-11,-9,6,-10,-8,16,-12,-4
1622149555298784,13,-6,-29,-13,-20,11,22,26
1622149555307752,-17,17,27,31,19,-30,-33,-35
1622149555307752,21,-8,-8,-3,1,8,0,-15
1622149555313742,-10,-9,2,-4,-15,0,-3,24
1622149555313742,-18,4,-6,10,0,6,4,-31
1622149555322786,1,-6,-12,-20,16,-2,-3,19
1622149555322786,-8,-9,0,-8,-8,16,-16,-4
1622149555335898,11,9,0,11,1,-4,19,13
1622149555335898,-4,-5,-9,-20,3,-16,-19,-13
1622149555344877,-8,-7,-14,-8,-27,7,-33,4
1622149555344877,3,21,1,-16,15,-6,36,9
1622149555359149,-3,3,0,10,-4,12,-10,-16
1622149555359149,-9,2,11,7,6,1,-2,-31
1622149555367411,10,-16,-13,-10,23,-10,6,16
1622149555367411,5,-11,0,0,-24,2,37,42
1622149555382955,-22,13,-16,-18,16,-19,-43,-52
1622149555382955,20,4,4,12,-27,-14,13,13
1622149555383791,-16,4,-1,8,28,32,9,-4
1622149555383791,-7,-10,2,-1,-19,9,-5,-16
1622149555395766,-2,-7,-7,-1,26,-14,1,2
1622149555395766,-3,-5,7,2,-7,21,13,2
1622149555405742,-1,3,3,-3,-11,-11,6,-10
1622149555405742,7,0,6,14,5,-12,-24,1
1622149555418704,6,7,-5,13,6,15,19,21
1622149555418704,4,8,17,-7,8,-4,24,-10
1622149555427385,-5,4,-11,-28,5,15,15,7
1622149555427385,-7,-3,3,10,-1,-49,-30,-38
1622149555442381,5,-21,-10,-10,-7,16,9,15
1622149555442381,-11,9,-10,-5,-5,-1,10,5
1622149555444344,5,5,5,6,32,8,1,11
1622149555444344,-3,-7,-5,-11,-27,-5,-17,-27
1622149555456336,6,13,32,28,12,5,-4,3
1622149555456336,-8,-7,-9,-11,3,10,-3,-28
1622149555465782,2,4,-7,-1,11,2,11,8
1622149555465782,0,7,0,-11,-14,-7,-7,-9
1622149555478916,-8,-14,-2,-9,-39,-6,-3,-15
1622149555478916,-1,7,2,12,14,3,6,11
1622149555488883,19,-9,-8,-8,-12,1,-26,-5
1622149555488883,-12,11,3,-1,32,-3,33,11
1622149555502426,1,-8,-1,-1,-29,2,-11,-10
1622149555502426,-1,-1,0,-10,-14,-7,39,-22
1622149555504423,-2,-8,-12,-5,-5,0,-62,13
1622149555504423,-1,-3,-8,-20,-23,1,14,17
1622149555516785,5,-10,18,29,20,-1,18,5
1622149555516785,-4,-1,-9,-24,-5,-5,-18,-3
1622149555524860,4,6,3,19,10,13,19,-7
1622149555524860,-6,-2,-1,3,-25,7,1,-6
1622149555547864,-15,0,-10,-22,-1,1,-6,-3
1622149555547864,29,-4,0,6,39,-16,18,24
1622149555548877,2,-22,-10,-12,-29,-10,-10,19
1622149555548877,-27,14,6,7,23,15,-3,-14
1622149555563032,-6,-3,-6,4,7,-4,5,-4
1622149555563032,4,-1,-5,-15,-8,10,-23,-2
1622149555563890,-23,4,11,17,-7,-3,54,18
1622149555563890,20,-7,-6,-7,2,-31,-23,7
1622149555576789,-1,-11,2,3,0,0,-39,-59
1622149555576789,-4,-11,-6,0,4,19,6,37
1622149555584871,7,29,0,-11,0,5,-5,-40
1622149555584871,3,-6,-1,7,-8,-3,-12,1
1622149555599136,-2,4,4,-6,18,-9,30,6
1622149555599136,2,-8,2,26,10,13,-21,2
1622149555607321,0,-7,-6,-21,-60,-19,-5,-3
1622149555607321,-5,-3,-7,-7,29,7,24,-9
1622149555622212,29,11,10,23,27,11,-21,15
1622149555622212,-18,-4,10,32,-16,-22,-11,-8
1622149555624664,5,2,-6,-3,12,9,31,9
1622149555624664,-6,0,7,20,-4,-15,12,-7
1622149555635843,-4,-3,-13,-24,-12,-3,-35,16
1622149555635843,-7,4,-5,-12,19,-3,15,3
1622149555644843,14,-6,12,14,3,-8,-25,-10
1622149555644843,-12,-5,-8,-19,-17,8,27,25
1622149555668036,0,0,0,16,0,-4,-40,-82
1622149555668036,6,4,-4,-9,6,10,15,26
1622149555669040,-6,-1,20,14,10,-4,-10,2
1622149555669040,-12,-3,-8,-8,-6,-9,-11,-1
1622149555682385,27,4,1,5,-15,-5,7,-3
1622149555682385,-9,3,17,18,-2,4,13,27
1622149555684385,-15,-10,-6,-1,-5,-4,-26,-4
1622149555684385,2,7,8,9,-3,-2,23,-18
1622149555696374,-6,5,-1,-10,20,30,12,21
1622149555696374,4,-3,-10,-10,11,-1,6,-17
1622149555705460,1,-6,4,4,-13,-28,-22,13
1622149555705460,8,-8,6,6,-5,13,4,16
1622149555719080,-18,0,-11,-15,3,3,-17,-10
1622149555719080,11,-1,-6,7,-18,-1,7,-13
1622149555727308,-13,2,10,-4,31,19,-29,-2
1622149555727308,19,1,-6,-6,-12,12,-15,-26
1622149555742503,23,-12,-2,-8,1,-12,30,45
1622149555742503,-34,2,-5,-28,-2,7,7,-5
1622149555744476,6,6,-8,7,-8,-12,-20,-30
1622149555744476,2,19,6,23,-7,-2,14,25
1622149555756460,5,-9,-6,-15,24,5,-17,14
1622149555756460,5,-14,5,6,-30,2,30,-13
1622149555765414,-9,8,-7,-15,-15,-13,4,28
1622149555765414,-7,-3,-9,-22,16,-5,-54,-49
1622149555779135,8,11,8,27,11,16,46,8
1622149555779135,-3,-2,-14,-22,-42,-38,-42,-14
1622149555788082,-9,-9,-5,-6,33,22,41,-1
1622149555788082,10,-15,18,11,-6,-7,9,24
1622149555803042,-3,9,-3,0,-21,19,5,7
1622149555803042,-17,-16,0,0,3,-18,3,-7
1622149555804040,11,20,4,-1,8,3,-33,-18
1622149555804040,-12,-9,-18,-9,21,2,-10,19
1622149555816760,-3,-6,6,-8,-45,15,24,2
1622149555816760,23,19,6,8,-32,11,-3,47
1622149555825093,-12,-7,-11,-27,3,-5,31,1
1622149555825093,9,2,7,15,18,-3,-30,-1
1622149555839156,-13,1,17,24,16,-6,3,13
1622149555839156,3,-2,-5,-9,6,-16,-34,-27
1622149555848132,-4,-11,-5,-3,-8,-4,4,-9
1622149555848132,-23,5,6,-3,-23,12,15,-2
1622149555863092,23,1,-2,7,5,-27,1,17
1622149555863092,-15,-4,-2,-4,-23,14,-19,-11
1622149555864750,-4,4,-16,-6,1,0,21,4
1622149555864750,-29,-3,18,5,24,12,26,0
1622149555876754,6,7,-4,-9,-13,-26,-37,-71
1622149555876754,5,-3,0,1,32,41,36,59
1622149555885783,0,-4,-9,-1,-40,-19,-33,-12
1622149555885783,4,5,-14,-13,16,-5,16,9
1622149555898778,-13,14,-1,-16,-22,-10,-11,0
1622149555898778,5,4,-1,-5,31,11,-12,-29
1622149555908203,2,-5,11,18,0,-5,-9,-4
1622149555908203,0,-21,2,13,-2,2,-2,1
1622149555922163,-12,3,-7,-12,7,-22,12,20
1622149555922163,6,5,-4,6,-6,-14,-11,-24
1622149555924791,0,0,-3,-10,-4,25,13,14
1622149555924791,23,3,-4,-1,-13,-2,1,20
1622149555936423,-37,-23,-16,-17,7,-27,-27,-32
1622149555936423,1,-14,2,-6,-27,-6,0,-41
1622149555945793,22,20,8,9,21,1,18,58
1622149555945793,11,1,-1,3,-14,1,22,-8
1622149555958901,-19,-6,-13,-15,16,14,8,11
1622149555958901,19,9,7,15,14,-13,-25,5
1622149555967443,-4,-12,3,-3,-28,30,-25,-17
1622149555967443,-9,-4,0,4,5,-31,-47,-49
1622149555982970,-1,-3,-2,14,-2,17,25,20
1622149555982970,-12,-4,-7,-12,9,-8,-3,-11
1622149555984865,3,2,13,18,36,16,30,-1
1622149555984865,-3,7,-2,-8,-60,-12,7,35
1622149555995864,17,-3,-2,-3,-8,-27,-24,-49
1622149555995864,-15,-3,4,12,14,-6,-1,8
1622149556012870,17,-9,-4,-18,1,0,6,1
1622149556012870,-8,11,1,-3,31,3,-9,-11
1622149556019130,13,-3,10,2,-29,7,0,-27
1622149556019130,0,-22,-13,-5,-2,2,5,38
1622149556028114,-20,28,11,-8,-2,-23,12,-3
1622149556028114,23,-8,-6,-10,17,38,4,-1
1622149556042227,-4,-7,-5,13,-15,-49,30,17
1622149556042227,-6,0,0,-7,-5,4,3,-8
1622149556044190,-28,-7,2,27,-2,-11,-38,-1
1622149556044190,24,0,-5,-13,13,8,0,-3
1622149556056186,-8,1,-5,-5,27,19,-13,-12
1622149556056186,5,12,9,-13,-8,6,7,-3
1622149556065133,5,-3,-4,-1,-6,-41,11,2
1622149556065133,-9,-1,-6,0,-16,-11,-28,0
1622149556079183,9,7,2,-8,-5,7,4,23
1622149556079183,-10,-2,-8,-2,36,4,7,-11
1622149556088872,1,-7,-15,-11,-46,-24,-24,-27
1622149556088872,-10,-8,22,26,11,10,-2,-2
1622149556102380,-2,8,-7,-32,12,8,4,8
1622149556102380,-9,14,8,39,0,5,5,33
1622149556109220,35,-13,-1,-2,7,-5,-5,-16
1622149556109220,-18,-3,-16,-30,0,4,-1,-8
1622149556116790,0,-3,3,11,5,11,-16,6
1622149556116790,6,5,-7,-28,-31,2,6,19
1622149556132376,-9,-6,-2,5,6,-14,-8,-21
1622149556132376,-11,-3,-15,-15,-49,3,16,14
1622149556138369,15,-3,7,-4,10,12,32,-5
1622149556138369,-23,-6,-9,2,12,2,-4,-9
1622149556147341,5,-3,-1,5,16,4,24,8
1622149556147341,2,4,-2,-5,-12,-10,0,-14
1622149556162300,-4,-5,-6,-5,-11,12,-1,24
1622149556162300,0,-1,0,16,1,-21,8,-23
1622149556168303,-22,-4,-2,-5,31,19,-35,5
1622149556168303,-1,0,5,-5,-27,-16,13,-24
1622149556176768,-10,-5,-10,8,3,-8,-3,23
1622149556176768,11,14,11,-7,-8,15,-2,-7
1622149556186422,2,-1,5,9,-24,11,6,24
1622149556186422,2,4,1,2,8,-12,-3,-25
1622149556198389,-2,-9,-1,-1,-16,-2,-6,0
1622149556198389,9,-2,-13,-23,-2,-3,-6,-13
1622149556207447,-4,6,18,26,15,-9,-7,-11
1622149556207447,25,1,1,-2,1,-5,-2,18
1622149556221512,-41,0,3,15,15,21,30,4
1622149556221512,23,-7,-3,10,-16,-13,-9,-8
1622149556229008,-10,0,-13,-18,-29,17,21,-9
1622149556229008,-5,-1,-1,5,30,-6,-22,8
1622149556235876,24,2,0,16,7,-29,-23,-5
1622149556235876,-9,-4,-1,-8,11,7,10,-11
1622149556244885,-5,-7,-8,-6,-30,14,6,-3
1622149556244885,-5,1,-3,-1,6,-19,13,18
1622149556259208,-8,0,-1,5,2,2,-13,0
1622149556259208,7,0,3,10,12,-12,-17,1
1622149556267424,13,7,8,9,-7,19,5,-19
1622149556267424,-10,-7,13,-5,-6,-8,15,9
1622149556282359,3,3,-3,10,16,-2,-8,0
1622149556282359,3,-4,-4,-19,-32,5,-3,-10
1622149556288365,15,6,-6,1,12,-2,-2,11
1622149556288365,-34,-10,-8,-3,16,19,5,-1
1622149556296768,27,-2,9,5,-14,-14,-47,-12
1622149556296768,-18,2,5,7,4,14,46,9
1622149556304749,-1,-3,-14,-25,0,-4,9,-1
1622149556304749,1,1,-2,10,13,3,-28,-7
1622149556319152,19,-3,-2,-28,-15,10,20,-13
1622149556319152,-7,4,2,33,10,-5,-22,11
1622149556327426,12,-6,-1,-15,27,-21,5,17
1622149556327426,2,14,3,6,-22,1,-12,-14
1622149556341871,-19,-6,-1,9,9,6,49,26
1622149556341871,-19,-7,-11,-33,-21,-35,-44,-12
1622149556348850,-3,-5,10,27,5,25,25,-7
1622149556348850,0,-1,-2,18,14,-20,-8,17
1622149556365532,-4,-1,-1,-16,-20,-3,-16,-21
1622149556365532,20,-3,-3,-13,12,21,18,5
1622149556366393,-8,1,1,-7,12,-16,-16,-2
1622149556366393,8,-3,-6,-7,-25,2,-5,-8
1622149556379208,-10,-3,-13,-11,-6,7,-11,8
1622149556379208,-1,5,35,29,-4,-13,-1,-10
1622149556387916,-28,0,-3,5,29,4,2,11
1622149556387916,35,-3,-8,-23,-38,-3,-4,-10
1622149556409773,-8,-1,-6,6,8,14,24,5
1622149556409773,-2,-4,-10,-18,8,-9,-25,6
1622149556411413,-2,-4,-16,-20,-33,-32,-8,-16
1622149556411413,4,3,3,1,56,29,11,-49
1622149556440418,-19,0,-3,-18,-32,-15,-25,-2
1622149556440418,12,-1,5,30,-8,23,30,0
1622149556442388,-4,-3,-7,-8,7,2,-13,9
1622149556442388,7,-6,-6,-3,-5,-4,-4,12
1622149556443410,-9,3,0,-13,5,-12,-8,-20
1622149556443410,0,8,1,5,6,3,47,37
1622149556447523,7,3,6,8,-6,-13,-55,4
1622149556447523,-6,9,2,-3,-5,-2,42,11
1622149556461751,6,-13,0,14,49,18,19,-4
1622149556461751,-1,2,5,-4,-38,-37,-65,-53
1622149556477475,-18,-13,-8,-11,3,12,10,22
1622149556477475,-18,4,-1,2,15,-19,-11,0
1622149556484971,28,-5,5,-12,-13,16,3,24
1622149556484971,-9,1,0,5,-17,-23,-10,-20
1622149556487881,4,0,-6,-2,-1,-1,14,-6
1622149556487881,-9,-11,0,1,17,5,32,3
1622149556499194,5,6,0,10,-18,-1,-16,-9
1622149556499194,0,-9,-15,-22,5,8,18,2
1622149556508193,0,-2,9,1,-5,-3,-44,-14
1622149556508193,-7,9,-1,-1,12,-4,3,12
1622149556529871,-10,4,-3,13,-6,13,31,52
1622149556529871,26,-1,3,-13,7,-4,-25,-31
1622149556531387,-9,5,-8,7,-5,-11,20,3
1622149556531387,-3,-8,-10,-4,3,3,-15,-35
1622149556545562,5,2,16,-1,-17,10,-2,59
1622149556545562,-12,-12,-12,-8,19,-11,-9,-29
1622149556546419,12,0,-8,-14,-23,18,26,19
1622149556546419,-8,-30,-4,13,1,-10,-20,-5
1622149556575542,-12,20,-1,3,7,-15,-14,-19
1622149556575542,-9,2,-1,5,22,26,29,33
1622149556577228,11,-3,6,1,-26,-23,-21,-40
1622149556577228,-16,-6,-12,-15,-14,3,-20,14
1622149556581728,13,-11,-7,-10,8,-20,-21,-21
1622149556581728,-1,3,5,15,-15,2,14,26
1622149556589839,-5,-4,-7,3,16,24,26,0
1622149556589839,2,0,19,-3,2,-26,1,9
1622149556605536,-3,5,4,22,15,-7,-21,-10
1622149556605536,-8,-10,3,11,-25,3,-7,-6
1622149556606443,28,17,-8,-30,5,10,8,1
1622149556606443,-1,5,8,15,-6,10,2,3
1622149556618650,0,-1,0,-17,7,0,10,-10
1622149556618650,33,-1,-6,9,0,-5,-21,2
1622149556627694,-25,19,6,4,6,-5,11,2
1622149556627694,-5,-9,-3,-23,-7,-2,1,-14
1622149556641827,-3,0,-1,8,-3,-2,-3,23
1622149556641827,-21,4,6,3,-5,4,17,6
1622149556650779,30,-6,-9,9,1,-12,-25,4
1622149556650779,11,10,21,26,18,1,10,10
1622149556664835,-16,-11,-7,-13,-26,8,27,-7
1622149556664835,-3,-4,-7,-16,-13,-19,-16,6
1622149556667240,-14,-10,0,6,7,32,12,-20
1622149556667240,4,-14,-13,-11,-31,-39,-35,15
1622149556679232,-14,14,6,5,4,6,25,-13
1622149556679232,-10,-5,-3,0,22,2,-6,0
1622149556688864,1,17,6,4,-2,-10,3,22
1622149556688864,9,2,0,4,2,7,-36,-90
1622149556701030,1,-6,-4,-27,17,10,1,29
1622149556701030,-3,-5,-7,-13,-34,-23,-5,7
1622149556709876,-25,-16,-2,6,-18,-1,21,2
1622149556709876,11,11,17,12,10,12,8,28
1622149556725147,-2,-9,-8,10,-1,-24,-28,-26
1622149556725147,-1,0,17,-21,30,14,12,-4
1622149556727107,2,10,-2,17,15,-1,-24,3
1622149556727107,-8,-2,-5,6,-26,10,13,8
1622149556738252,18,-3,0,-3,-10,-15,-17,-28
1622149556738252,0,-3,-4,16,10,-25,-17,15
1622149556747229,-7,-2,-3,-17,6,30,44,-6
1622149556747229,6,3,-15,-10,-5,14,30,38
1622149556761736,-15,-14,-10,-22,1,-16,-30,-17
1622149556761736,2,18,4,8,16,-5,-24,-32
1622149556770415,2,-23,1,12,-10,-14,-52,-18
1622149556770415,-21,18,-12,-13,13,29,61,7
1622149556792797,17,-5,-3,1,13,-25,-7,39
1622149556792797,1,-1,-9,-12,-49,7,-13,10
1622149556793792,-16,3,7,-9,5,-14,2,-11
1622149556793792,27,-8,-10,-12,-2,-7,-13,8
1622149556798803,7,1,9,21,2,23,20,-23
1622149556798803,2,-4,4,-2,-6,18,29,27
1622149556807752,-7,-3,-4,-8,-6,-23,-43,-60
1622149556807752,7,-1,6,21,6,-1,-18,-6
1622149556820845,-21,-17,9,8,-14,4,17,3
1622149556820845,-7,28,-6,9,23,8,2,-18
1622149556829872,7,-5,-2,-7,5,7,17,47
1622149556829872,-3,-12,5,6,8,6,-4,-5
1622149556844893,0,16,-8,-17,-14,-17,-12,-22
1622149556844893,-1,-9,-9,-18,-11,2,20,2
1622149556847274,2,1,-3,6,27,-4,-9,-23
1622149556847274,-4,-5,2,-15,-9,16,-28,20
1622149556859217,-3,-7,-2,26,6,14,43,11
1622149556859217,1,6,13,-1,5,-13,-20,-7
1622149556868198,8,0,-14,-39,-26,17,32,21
1622149556868198,-3,3,4,24,6,-23,-8,-55
1622149556881752,-7,-4,-3,-6,-17,-4,-24,-2
1622149556881752,-7,-15,-16,-3,9,19,5,21
1622149556890307,13,0,17,58,8,7,18,-17
1622149556890307,-13,10,3,18,7,-20,-25,14
1622149556904729,6,-4,-20,-47,-2,9,34,-1
1622149556904729,-17,0,4,4,13,-4,-45,-13
1622149556906726,0,-11,-3,-15,-24,2,-14,30
1622149556906726,6,0,7,25,19,-1,15,9
1622149556919208,-17,0,3,11,-10,6,-24,-34
1622149556919208,16,-1,-1,-2,16,-5,8,37
1622149556927461,-1,-8,-7,-16,-9,0,25,-3
1622149556927461,-9,-3,-5,-16,-5,3,-7,0
1622149556940873,16,15,4,3,31,16,6,4
1622149556940873,-5,-7,-3,-4,-25,-16,14,-2
1622149556949848,26,5,22,21,-10,9,-10,12
1622149556949848,-5,-8,-13,-18,15,-12,3,13
1622149556965928,-12,-4,-6,-3,-5,-5,-27,-10
1622149556965928,-4,-14,-12,-18,-26,2,30,-12
1622149556967677,-10,13,-3,-11,-32,-5,2,4
1622149556967677,-16,-13,-7,-3,4,3,0,-12
1622149556979156,32,16,1,-15,4,-12,-20,14
1622149556979156,-19,-3,-7,9,19,4,-6,-12
1622149556988702,-6,-5,1,3,16,-17,-12,-5
1622149556988702,11,-5,-2,-13,-29,23,28,-9
1622149557001694,-18,4,11,11,-13,-1,-28,-58
1622149557001694,4,-10,-15,-41,-8,16,28,1
1622149557010641,-3,6,10,40,6,-32,-24,-5
1622149557010641,5,11,-4,-6,-49,2,25,28
1622149557024654,-2,-16,-3,0,9,-16,15,14
1622149557024654,7,11,23,41,24,9,-16,-6
1622149557027201,28,-7,-9,-18,-9,-6,10,-2
1622149557027201,-20,0,-8,11,0,-1,-16,-1
1622149557038703,-3,-12,6,5,4,-3,-6,10
1622149557038703,5,1,-4,-18,-21,5,-16,4
1622149557055386,-18,9,-9,-4,5,14,2,-24
1622149557055386,4,-9,7,5,16,-11,-20,-24
1622149557061394,-5,1,-11,-19,-41,-9,-11,-7
1622149557061394,16,-2,8,6,11,-15,18,18
1622149557070414,-8,-3,-5,-5,16,16,-8,37
1622149557070414,-1,0,-6,4,17,14,15,-16
1622149557084886,-5,5,-1,3,21,-6,-8,-2
1622149557084886,8,-4,1,-16,-11,-6,-8,-12
1622149557091773,-6,-1,15,29,10,-3,20,-1
1622149557091773,-1,5,-11,-23,-9,-8,-6,10
1622149557099241,6,-5,6,8,-2,6,-6,22
1622149557099241,-2,4,18,39,0,-5,-2,-2
1622149557107419,-8,-6,-7,-43,16,19,16,-3
1622149557107419,-5,-1,-3,4,-32,-18,-33,-19
1622149557121752,21,1,-4,11,-3,-17,21,-10
1622149557121752,-5,1,-4,-7,14,17,8,3
1622149557129880,-16,-4,-4,3,29,-17,-12,-9
1622149557129880,-1,-7,6,6,-32,0,10,8
1622149557144841,-14,-4,3,7,2,-18,-34,-25
1622149557144841,2,3,-12,-11,3,38,13,25
1622149557150997,-3,-10,-2,-4,8,-42,14,10
1622149557150997,-4,3,9,-2,-16,3,0,-13
1622149557159233,7,3,-4,-3,-3,1,15,10
1622149557159233,-5,2,6,50,20,4,-17,-18
1622149557167441,-7,-7,-10,-36,-31,-2,-28,-3
1622149557167441,7,8,-3,11,21,-5,30,18
1622149557181746,-6,-1,8,12,6,20,12,7
1622149557181746,0,-2,-9,-22,-5,-12,-4,-21
1622149557189858,8,1,0,25,14,7,7,-1
1622149557189858,-2,-3,-9,-36,-17,-11,-15,-19
1622149557204859,1,-6,2,-5,3,21,15,60
1622149557204859,-4,14,-1,18,1,8,22,5
1622149557211675,12,0,-11,-18,-22,-17,-23,-8
1622149557211675,-7,2,12,-10,3,2,-25,-13
1622149557219181,6,-12,-12,3,-5,-5,20,5
1622149557219181,-11,-10,-5,-26,-6,-14,-15,-14
1622149557227800,-6,3,0,16,-19,11,-10,8
1622149557227800,20,-8,2,6,27,-1,12,0
1622149557241818,-13,5,-6,3,-1,-8,7,12
1622149557241818,-3,-9,-4,-21,-6,-10,-23,-44
1622149557250769,-12,-1,-1,0,-3,14,9,-4
1622149557250769,15,0,-7,-8,2,-12,-23,-6
1622149557264756,-6,0,7,9,-1,15,26,1
1622149557264756,7,3,-6,17,8,-6,2,-20
1622149557271725,10,-3,12,-6,21,9,10,28
1622149557271725,9,-3,-10,-16,-5,13,8,12
1622149557287838,-29,1,2,6,-11,-4,-41,-9
1622149557287838,-8,-10,-13,-17,-13,-26,11,-10
1622149557289833,6,-6,2,19,12,-2,22,9
1622149557289833,-9,2,-15,-37,11,-1,8,27
1622149557300831,-1,4,19,17,-16,1,-28,-77
1622149557300831,3,-7,-8,-15,12,-15,-5,28
1622149557309809,-4,3,-4,9,-25,19,35,1
1622149557309809,-4,1,6,3,-19,-8,-37,-4
1622149557324864,-1,-3,-8,-10,18,25,26,19
1622149557324864,-3,-2,4,-13,-17,-32,-25,-7
1622149557331679,8,-2,-2,-3,-13,4,10,-4
1622149557331679,-6,0,9,23,13,0,4,9
1622149557347321,4,0,-13,-16,-17,3,-2,-4
1622149557347321,-16,0,21,34,1,0,-1,0
1622149557349320,15,2,-9,-3,0,10,12,28
1622149557349320,-6,-15,-6,-1,-3,0,-12,-1
1622149557361260,-5,16,-2,11,20,-8,33,-14
1622149557361260,5,11,-9,-21,-18,-1,-25,5
1622149557370240,-13,-3,17,3,-9,-12,15,4
1622149557370240,-3,4,-3,2,35,2,-22,17
1622149557385196,12,-7,2,4,-36,-20,0,-10
1622149557385196,-4,-3,-4,5,20,21,30,-3
1622149557391205,-3,-5,-9,-38,-80,-3,-51,-26
1622149557391205,5,16,8,20,27,-21,46,12
1622149557408153,-1,-6,-4,-25,-1,0,-33,10
1622149557408153,-3,-2,5,10,-14,10,7,19
1622149557409131,-9,-11,-5,-6,29,-15,-11,-10
1622149557409131,-7,-5,8,17,-19,2,-2,0
1622149557421356,1,1,-8,-19,-15,-6,-5,3
1622149557421356,11,-5,2,3,20,1,1,20
1622149557429886,12,12,6,21,14,-13,-20,-42
1622149557429886,-4,-2,-1,-3,-15,11,19,-22
1622149557452872,-1,-2,-6,-13,2,6,-6,29
1622149557452872,18,9,1,11,0,-11,2,15
1622149557453870,-14,-6,-5,-11,11,3,-6,-3
1622149557453870,-7,-1,-9,0,-17,-15,0,-14
1622149557468088,-5,-5,9,9,7,8,5,-15
1622149557468088,12,-4,-12,-37,-24,-2,-14,-9
1622149557469088,-1,4,-1,23,26,-9,8,-16
1622149557469088,12,8,3,0,11,15,-5,16
1622149557481744,-16,-11,-5,10,7,6,1,8
1622149557481744,-1,-15,0,-1,-15,-18,-15,4
1622149557489893,2,-1,-10,7,35,-7,19,-21
1622149557489893,-2,6,-3,-11,-32,18,4,7
1622149557512405,4,2,8,6,-21,-3,-2,-21
1622149557512405,-6,-7,-5,-2,18,-5,1,-11
1622149557518527,2,-3,6,2,-3,-14,-26,9
1622149557518527,-22,-4,-11,4,18,8,5,1
1622149557528030,27,-14,18,-9,-27,-6,14,8
1622149557528030,-13,13,5,25,21,22,-8,-26
1622149557529604,-3,-9,-14,-23,-23,5,34,-2
1622149557529604,7,3,1,4,-6,-18,6,9
1622149557541846,-4,2,-7,-10,34,7,5,16
1622149557541846,18,1,2,7,-22,6,13,25
1622149557549822,-21,-3,-10,6,-10,-9,-39,-39
1622149557549822,-10,-7,7,-16,15,6,-7,-33
1622149557564759,16,6,-7,-7,19,-9,-4,4
1622149557564759,-5,-21,6,32,18,6,23,0
1622149557571303,-15,24,-8,-26,-33,1,-8,-4
1622149557571303,15,-12,4,13,-18,-19,-35,18
1622149557587827,3,0,-6,-9,17,13,17,-17
1622149557587827,1,0,-2,-25,14,3,-12,-9
1622149557589822,-4,-11,4,7,-18,15,29,-1
1622149557589822,-4,1,15,-3,-9,-1,-16,26
1622149557600816,1,5,-5,-2,19,9,8,6
1622149557600816,-3,-2,-6,-1,7,-10,-22,-29
1622149557609797,1,-8,7,8,-29,-2,1,-9
1622149557609797,25,2,-1,3,19,9,10,-9
1622149557624820,-11,1,-6,-13,4,7,12,29
1622149557624820,-21,-1,-1,-2,-12,-4,-8,-11
1622149557631706,10,-10,1,-25,16,-9,-15,6
1622149557631706,-13,11,7,45,12,-8,4,-13
1622149557648133,4,-3,0,10,-8,-4,3,-19
1622149557648133,13,-1,-9,-23,-14,-12,-22,23
1622149557649133,-22,2,13,16,9,9,16,15
1622149557649133,2,-11,-21,-42,13,0,13,5
1622149557661752,3,1,14,20,5,-25,-42,-22
1622149557661752,-9,-4,-10,-13,-31,38,26,-2
1622149557670017,0,3,-7,4,14,-4,-12,17
1622149557670017,-3,-12,-1,-11,15,0,-2,-19
1622149557684459,-9,-4,7,18,-2,6,18,27
1622149557684459,0,12,-9,-23,-7,15,-28,-21
1622149557691438,11,4,8,23,1,-24,-2,7
1622149557691438,13,-10,-6,-3,4,12,43,-4
1622149557708163,-7,14,-10,-12,-29,-14,-25,10
1622149557708163,-5,1,19,17,0,-22,-21,-14
1622149557709162,3,-2,-8,-5,26,24,18,27
1622149557709162,0,4,10,-15,-25,-25,-18,-5
1622149557721674,-6,-9,-4,12,-11,0,0,-7
1622149557721674,5,5,-9,-19,6,-30,0,2
1622149557729875,-12,-3,-1,-5,-18,16,15,-13
1622149557729875,-14,-5,-6,-2,14,1,1,16
1622149557744826,7,-6,-1,3,-10,-14,-22,18
1622149557744826,-5,15,6,5,1,19,8,-13
1622149557751737,9,-13,-4,-1,6,-26,-4,19
1622149557751737,-9,0,-7,-7,3,17,14,4
1622149557768116,1,2,15,5,-14,5,-5,-19
1622149557768116,-9,-6,-4,12,7,-2,29,17
1622149557769332,14,6,-2,-15,-2,2,-17,8
1622149557769332,-11,0,-4,7,4,2,19,-13
1622149557781792,5,-8,2,9,-3,-10,-38,-12
1622149557781792,5,21,16,2,29,10,7,15
1622149557789841,-1,-11,-10,-22,-44,-27,-4,0
1622149557789841,1,0,0,5,-9,0,-15,-5
1622149557804421,-8,1,-10,-3,8,13,29,22
1622149557804421,10,-16,11,33,-3,-8,18,5
1622149557811761,-5,12,-1,10,35,33,-44,4
1622149557811761,-3,-3,-16,-35,-18,10,-6,-6
1622149557828152,7,2,11,-9,-21,-16,20,1
1622149557828152,-2,-7,-4,1,-3,-19,-17,-4
1622149557829152,3,-9,5,7,14,32,17,-39
1622149557829152,-1,10,6,-1,-22,-1,-10,34
1622149557840798,-3,-1,-11,-12,29,-21,-9,-2
1622149557840798,-4,-6,-7,12,-35,-7,-17,-35
1622149557849774,-1,-17,21,11,18,-1,-14,-3
1622149557849774,2,4,-4,-4,11,3,4,3
1622149557864299,-7,5,-12,-9,1,-5,21,-14
1622149557864299,3,2,14,15,10,30,-13,11
1622149557872790,-3,-13,-12,-15,2,-28,4,12
1622149557872790,0,-1,2,16,4,15,16,-48
1622149557887813,-1,3,-11,-9,14,4,-14,16
1622149557887813,6,0,11,7,-29,-15,3,20
1622149557889807,-10,1,-17,-38,12,24,9,-16
1622149557889807,-25,-3,11,24,-8,-9,-12,-25
1622149557909826,32,0,1,-6,23,3,8,4
1622149557909826,-26,-1,-11,-11,-11,7,4,-8
1622149557911821,17,14,6,12,-8,-20,-1,22
1622149557911821,0,-9,-4,-9,4,-3,-29,-1
1622149557923833,-11,-6,0,5,1,-2,29,-10
1622149557923833,15,-9,-17,-5,45,17,16,1
1622149557932395,1,15,14,0,-50,-38,-9,-1
1622149557932395,-2,-10,-8,-3,-3,14,10,3
1622149557955360,-5,2,1,8,-7,2,-17,14
1622149557955360,0,-6,-2,-5,-3,-19,-15,-20
1622149557962342,-8,-2,-7,17,11,31,53,2
1622149557962342,14,4,-2,-6,-18,-20,-34,0
1622149557962342,-19,0,0,-4,1,1,7,4
1622149557962342,5,-4,10,-1,-10,-9,8,10
1622149557970305,11,17,-4,-6,-15,-8,-17,9
1622149557970305,0,-2,0,-11,20,5,16,8
1622149557984353,20,8,5,19,-13,8,10,-19
1622149557984353,-22,-4,-18,-34,-19,-12,-28,11
1622149557992359,-5,0,23,26,6,-8,-10,-4
1622149557992359,-1,1,0,12,18,-10,12,20
1622149558008133,0,-9,-12,-20,-25,12,-3,-19
1622149558008133,6,2,-3,0,21,13,11,20
1622149558009133,1,-2,-1,1,-19,-13,-21,-38
1622149558009133,-16,-12,-10,-16,-10,2,4,-8
1622149558021411,14,17,9,15,6,-12,-27,11
1622149558021411,-22,-6,-1,6,4,8,38,-8
1622149558029864,-2,2,-9,-10,-7,20,22,-4
1622149558029864,2,-4,-7,4,1,-25,-41,10
1622149558043794,8,-23,0,-5,-14,27,-14,-21
1622149558043794,-3,33,14,13,23,-11,31,12
1622149558059275,-8,-4,-6,-10,-27,-5,1,9
1622149558059275,10,0,-11,-5,-4,-7,-10,9
1622149558075557,0,2,6,0,-10,-11,30,-17
1622149558075557,-10,-5,-7,4,24,21,-28,-5
1622149558076818,-12,-9,-4,-18,4,-16,-8,7
1622149558076818,22,2,-2,1,-11,-9,1,-11
1622149558081706,-40,-3,9,-8,3,-9,-33,-10
1622149558081706,14,-12,-15,-3,-29,16,25,5
1622149558090349,18,8,-3,-9,26,-9,-3,-4
1622149558090349,-11,-10,13,22,-19,-4,23,-13
1622149558104286,-8,3,-10,-4,25,-9,-8,24
1622149558104286,-9,-8,4,-6,-10,7,26,-5
1622149558113259,14,-1,-7,5,-8,-14,-46,6
1622149558113259,-2,0,-6,-22,2,16,4,7
1622149558127445,-2,-5,1,44,-8,-25,7,-7
1622149558127445,3,-2,-12,-32,-10,34,14,7
1622149558134284,3,-7,1,8,10,-25,4,15
1622149558134284,10,7,6,2,-6,10,21,5
1622149558141268,-7,-30,-12,-13,-2,-4,-26,14
1622149558141268,-2,35,11,20,-1,-12,-44,-12
1622149558150245,13,-1,-2,6,9,-10,26,-9
1622149558150245,-14,-7,-6,-8,0,34,16,2
1622149558164303,-2,-6,-12,-20,11,3,24,11
1622149558164303,7,-7,20,37,-19,-39,-34,-6
1622149558173311,-21,0,19,12,12,35,-15,12
1622149558173311,26,10,1,9,2,-27,4,-2
1622149558187779,-3,6,-2,-1,-30,-9,-9,-13
1622149558187779,-9,-13,-14,-32,12,-1,3,-5
1622149558193764,-4,7,-4,7,-1,1,-3,-10
1622149558193764,1,-6,5,16,30,1,-1,38
1622149558209878,-12,4,-1,-7,-25,3,-11,-40
1622149558209878,16,0,0,-8,-3,-16,-2,-7
1622149558211441,-4,2,1,-4,7,16,-13,10
1622149558211441,-7,-12,-4,-1,-14,-14,5,6
1622149558223790,-1,11,0,6,26,8,2,5
1622149558223790,1,2,23,34,-23,-14,-1,4
1622149558232477,-4,-1,-10,-34,-3,5,-15,-15
1622149558232477,-16,-10,-5,-23,-30,4,13,-8
1622149558247517,6,3,3,-4,17,-10,-37,-26
1622149558247517,25,-7,-11,-20,9,-14,17,39
1622149558253530,-12,1,1,24,-1,12,39,-19
1622149558253530,23,9,9,13,3,-10,-18,-9
1622149558270535,-10,-6,-12,-27,5,-1,0,11
1622149558270535,4,2,-3,7,12,38,23,29
1622149558271533,8,-9,-2,4,-4,-32,-33,-9
1622149558271533,-17,9,-1,9,-4,-2,14,-5
1622149558284277,11,6,20,10,26,18,5,-7
1622149558284277,-5,-10,-13,-16,-19,5,4,-18
1622149558292281,0,-5,-4,-6,-8,12,28,36
1622149558292281,-10,5,1,8,26,13,-11,-20
1622149558307410,10,3,-6,1,-23,-18,14,18
1622149558307410,-16,-8,-4,-3,2,-14,-15,-28
1622149558313438,-17,-3,-6,-22,9,7,-16,-5
1622149558313438,52,3,4,8,5,2,19,4
1622149558330226,-11,-1,-3,7,4,-17,-5,13
1622149558330226,-11,-5,-4,-19,3,5,19,-9
1622149558331477,4,-1,-10,11,3,2,-11,-9
1622149558331477,-8,2,14,3,-19,-1,-24,44
1622149558352417,3,-9,-12,-11,-14,20,24,-20
1622149558352417,6,6,1,-1,33,2,-12,4
1622149558354432,-7,-3,-7,0,6,-10,10,6
1622149558354432,2,-6,11,8,-8,6,-8,-23
1622149558367441,-13,9,-2,6,-7,-7,4,0
1622149558367441,-4,0,-6,-15,-16,19,2,0
1622149558373897,28,-1,2,2,4,-3,-13,1
1622149558373897,-27,-13,-9,-7,6,6,-5,-35
1622149558390537,-9,0,11,7,-3,-25,-51,20
1622149558390537,4,-2,-13,-19,-12,10,27,8
1622149558391508,-4,4,4,14,17,-6,15,-22
1622149558391508,-33,-7,-5,-14,-28,3,14,7
1622149558403873,17,0,11,-3,20,6,-5,11
1622149558403873,-6,-3,2,25,-5,-26,-22,0
1622149558412426,8,-14,-6,-16,-13,21,5,9
1622149558412426,-5,32,4,17,17,-16,-17,-10
1622149558427356,-9,-10,-3,-12,-28,8,8,-2
1622149558427356,13,1,2,0,12,-10,-4,-10
1622149558433816,-8,-1,0,-3,-32,-26,-2,-5
1622149558433816,7,-8,-5,6,9,-3,-14,-1
1622149558457780,-2,-8,-3,-16,30,24,16,-11
1622149558457780,10,22,-8,-8,-35,-9,33,2
1622149558458780,-2,9,19,15,10,-7,-73,-12
1622149558458780,4,-7,4,-3,5,-7,39,29
1622149558463740,-5,-7,-11,14,-4,-5,10,-25
1622149558463740,-6,4,16,-6,-29,-12,-16,-12
1622149558472740,-5,-3,-2,-11,10,11,19,-8
1622149558472740,11,-12,3,9,16,-2,-19,-5
1622149558486895,6,15,9,-8,-22,5,7,9
1622149558486895,-2,-11,-16,6,16,-4,-22,-3
1622149558494331,-13,8,10,16,-15,2,4,-12
1622149558494331,4,-13,-13,-18,-5,-7,-7,-3
1622149558509882,-9,6,12,11,13,3,12,-3
1622149558509882,2,-4,-1,2,-1,-9,-29,-5
1622149558511487,-2,-8,-8,-7,-5,12,28,30
1622149558511487,-5,12,-3,-3,3,8,10,-9
1622149558524304,10,-8,-1,17,-5,20,15,22
1622149558524304,-5,17,2,4,13,-3,-6,-38
1622149558532868,-15,-8,-5,1,-15,-11,-13,-37
1622149558532868,6,5,-5,-16,10,-30,-16,19
1622149558547054,1,-2,-7,-5,-7,9,-36,-16
1622149558547054,-2,-23,9,1,14,13,37,28
1622149558553353,9,4,-12,-4,16,-2,12,-2
1622149558553353,-4,3,2,-16,-12,14,0,-8
1622149558570357,1,-2,-1,22,-7,-16,-12,4
1622149558570357,-35,-18,-9,17,40,0,0,4
1622149558571452,35,1,-13,-20,-14,20,10,9
1622149558571452,-22,5,10,4,-3,-28,-31,-8
1622149558584316,-6,-3,-10,-27,-9,-9,5,-3
1622149558584316,22,5,19,54,7,8,11,9
1622149558592321,-7,2,3,-5,2,-5,6,15
1622149558592321,1,-5,-14,-6,11,20,8,-48
1622149558607407,19,6,1,-9,2,-33,-45,-25
1622149558607407,-11,-14,1,-11,-18,-34,-15,32
1622149558614295,-1,14,7,-2,-21,8,7,21
1622149558614295,6,-10,-6,1,9,15,-3,-2
1622149558629844,-9,0,-8,-7,25,14,17,1
1622149558629844,8,-5,-13,-20,-26,-30,-30,-22
1622149558631847,-1,-5,-1,-1,12,17,23,5
1622149558631847,-10,-1,11,11,-13,-34,-6,10
1622149558643829,2,1,3,14,-12,11,8,1
1622149558643829,-4,4,-9,-24,27,9,-18,-12
1622149558652785,-17,1,-5,-11,-25,-11,7,24
1622149558652785,6,1,-6,16,19,38,4,-26
1622149558667545,15,-3,2,-18,1,-4,6,5
1622149558667545,-2,1,9,6,-25,2,18,10
1622149558674245,-6,-3,-3,-12,6,-27,-38,-1
1622149558674245,-1,3,-2,16,-13,6,-7,9
1622149558689658,-3,-1,-4,-11,12,0,13,-17
1622149558689658,0,-1,-4,-10,-19,19,7,6
1622149558691634,9,-2,-5,-15,20,20,-6,-36
1622149558691634,-2,-9,-3,6,-3,-26,-6,54
1622149558704199,-13,-2,-1,-10,-8,-1,6,5
1622149558704199,4,3,-3,6,5,8,-5,-17
1622149558712429,-14,1,4,26,14,0,-2,2
1622149558712429,49,-17,-16,-42,-22,-6,9,-17
1622149558727546,-20,17,0,4,-2,21,14,8
1622149558727546,-22,-12,-9,3,-16,-33,-13,5
1622149558741424,11,0,11,12,12,8,42,12
1622149558741424,-22,8,4,-3,-6,14,-54,-22
1622149558750676,34,0,1,17,-7,-24,-28,-7
1622149558750676,-23,-2,-7,-34,-11,12,18,-5
1622149558751633,-6,-4,-6,23,22,-4,-2,8
1622149558751633,-7,2,3,-3,-35,-6,24,-3
1622149558763899,-2,0,-5,-24,25,-3,11,18
1622149558763899,7,-16,-2,16,-11,5,-27,-22
1622149558772471,11,25,1,-15,-31,-20,-13,-4
1622149558772471,-9,4,8,13,14,-16,23,-20
1622149558787781,-11,-9,-4,21,14,8,-5,21
1622149558787781,17,-2,0,-20,4,15,13,-20
1622149558793764,-8,-16,-7,-3,10,24,32,18
1622149558793764,-26,2,-8,-4,-9,-16,-35,13
1622149558809808,42,3,0,1,7,-3,-5,-27
1622149558809808,-12,-3,6,-10,-16,-9,14,13
1622149558811813,10,17,6,13,18,10,-13,5
1622149558811813,-25,-8,-10,-14,-5,21,28,-17
1622149558823779,-14,-3,9,31,-4,-24,-40,-2
1622149558823779,12,25,-3,-9,14,10,12,10
1622149558832399,5,-18,11,8,12,2,-9,-12
1622149558832399,6,-3,-3,-1,-7,11,20,7
1622149558847403,-5,-4,-5,-16,-6,-3,14,-1
1622149558847403,7,-2,-7,13,4,-2,-9,-5
1622149558853351,-14,-2,14,-1,-21,-12,-8,9
1622149558853351,10,7,1,-12,0,0,12,-8
1622149558870302,-14,-13,-16,6,-6,3,-24,2
1622149558870302,10,4,5,0,7,-5,5,16
1622149558871300,-16,-10,-16,-4,-18,-16,-11,3
1622149558871300,-3,-3,3,0,1,4,4,-30
1622149558884315,-3,0,-4,-35,-33,-10,-21,-9
1622149558884315,-6,-3,-1,14,16,-8,17,-19
1622149558893312,-23,-4,-12,-12,16,-6,-14,1
1622149558893312,43,6,1,8,-12,14,-2,16
1622149558907984,-14,2,2,-2,3,-8,17,14
1622149558907984,-2,3,1,11,14,3,4,-18
1622149558914339,4,-3,-3,-16,-19,13,-38,-16
1622149558914339,-9,-11,-6,0,12,-33,-41,12
1622149558929860,7,10,15,23,23,12,53,10
1622149558929860,4,-8,2,-5,-13,11,0,17
1622149558931857,7,1,0,2,7,-38,27,13
1622149558931857,-10,-10,-14,-28,-17,4,-62,-39
1622149558943852,-3,2,-6,18,16,1,16,9
1622149558943852,4,-5,6,-9,-19,-7,-3,3
1622149558953040,-18,-5,0,10,25,15,9,4
1622149558953040,9,4,5,15,-7,-2,27,6
1622149558967482,6,-11,-19,-35,-21,-4,2,-11
1622149558967482,-16,5,3,7,20,10,-19,2
1622149558974321,12,-9,-4,16,0,0,2,-6
1622149558974321,-11,7,-22,-48,4,-13,-7,10
1622149558989437,-3,2,36,66,-9,15,7,-14
1622149558989437,6,-8,0,-2,3,-4,4,16
1622149558996833,11,12,5,10,-13,7,11,-5
1622149558996833,-16,-10,-15,-18,-12,-11,4,-28
1622149559003817,5,9,2,-16,-1,-15,-31,13
1622149559003817,-22,2,8,9,14,-3,-43,-9
1622149559012497,15,-18,-4,-23,15,19,-12,-22
1622149559012497,-4,24,0,12,7,-4,30,-2
1622149559027518,-2,-11,-14,-22,-16,27,27,23
1622149559027518,-10,0,5,6,14,-18,-2,-19
1622149559033854,51,9,-7,-35,-26,7,18,14
1622149559033854,-41,-6,17,66,33,7,-11,-4
1622149559049920,-4,-2,-2,-23,-18,-10,7,3
1622149559049920,3,10,0,-6,-9,-4,6,-10
1622149559064938,-8,-11,-8,1,-8,-11,-31,-4
1622149559064938,19,3,7,-1,19,38,42,12
1622149559065794,2,4,4,7,21,-30,11,-1
1622149559065794,-2,-22,-22,-13,-18,5,-33,9
1622149559072896,-7,16,17,12,6,-14,-7,-12
1622149559072896,17,4,4,-1,-2,5,6,19
1622149559087780,-16,-12,-11,4,8,24,2,-10
1622149559087780,24,0,-16,-22,-2,-3,-2,3
1622149559093764,-24,-1,1,-25,-18,-2,48,-19
1622149559093764,3,-7,1,-6,-17,-25,-30,57
1622149559109585,6,0,7,16,33,12,10,1
1622149559109585,-7,6,-9,-5,-28,-11,-13,-9
1622149559116809,2,11,47,45,17,9,18,3
1622149559116809,1,-19,-9,-18,-8,5,3,-8
1622149559123526,-4,12,-5,-42,5,-39,-14,-4
1622149559123526,-2,2,-4,21,9,42,-4,2
1622149559132500,1,-14,-16,-15,-5,-17,7,37
1622149559132500,-2,12,3,1,-17,-10,-11,-46
1622149559147548,2,-4,4,3,-3,-7,-23,3
1622149559147548,6,-3,4,-6,-28,20,9,-4
1622149559153535,-2,5,-4,11,7,-4,-8,1
1622149559153535,-25,-6,1,4,23,6,36,0
1622149559169566,21,-3,-8,-4,-9,5,-24,10
1622149559169566,-12,2,6,5,-9,-31,-1,-8
1622149559176658,27,-7,-19,-10,1,-1,-14,-13
1622149559176658,-21,-3,9,7,-13,11,-24,-12
1622149559193599,-20,-8,8,9,13,7,-18,-39
1622149559193599,10,0,-12,2,-23,-13,54,43
1622149559194558,-11,6,-10,-32,-13,27,-31,-11
1622149559194558,13,16,-8,-4,10,-10,13,30
1622149559206550,-4,-2,15,71,-15,27,19,3
1622149559206550,-6,-11,-14,-51,30,-23,-51,-16
1622149559215500,-14,-3,-3,11,8,-3,7,-9
1622149559215500,11,0,-10,-19,-24,6,-2,11
1622149559229838,-2,-1,-4,-7,-12,-5,13,-1
1622149559229838,-1,3,8,23,35,23,41,4
1622149559236532,-20,7,14,21,-32,-30,-29,4
1622149559236532,27,-5,7,-3,24,-4,-30,3
1622149559252488,-21,-6,-9,-21,-9,-7,24,-35
1622149559252488,2,-3,-2,-3,-15,6,8,6
1622149559254484,-27,-10,-11,-51,1,-5,-1,29
1622149559254484,27,11,23,53,13,-2,1,0
1622149559266676,-7,2,-3,-18,13,2,-3,-26
1622149559266676,-2,-9,-6,-8,-5,-10,-7,-2
1622149559275745,12,-7,-7,6,-17,-17,-8,-15
1622149559275745,-14,-3,9,1,17,3,2,5
1622149559289863,2,-4,-9,-14,-2,22,-2,20
1622149559289863,5,4,-1,-6,-6,-32,-25,-10
1622149559295849,-10,-5,-1,19,8,14,52,-11
1622149559295849,-1,-5,-7,-9,-4,-6,-12,0
1622149559313191,-3,-10,-21,-39,-18,-3,-38,-7
1622149559313191,1,8,30,47,39,0,13,-1
1622149559313987,8,4,7,4,-39,19,-14,-6
1622149559313987,21,-1,0,-2,20,-9,11,19
1622149559326844,-24,-7,0,-11,-18,-1,-24,-28
1622149559326844,-4,4,-1,-4,-15,-26,-23,-14
1622149559335781,-8,-10,-11,-3,19,8,6,-7
1622149559335781,-5,5,-1,-10,-9,-1,7,2
1622149559349863,32,8,7,4,-4,-13,15,26
1622149559349863,1,0,-4,3,1,9,2,-2
1622149559356846,-14,-9,12,19,15,-23,-21,-11
1622149559356846,1,10,-18,-19,-16,-4,11,-12
1622149559372856,0,-5,2,11,8,4,2,17
1622149559372856,-7,21,-1,-9,19,13,4,-6
1622149559373883,18,1,22,28,0,-12,-17,-5
1622149559373883,-19,-12,-18,-35,-37,17,4,-3
1622149559386782,12,9,15,21,23,1,-8,21
1622149559386782,-11,-10,-3,-9,-31,-26,-19,-30
1622149559395757,1,-1,-12,-12,37,14,-20,11
1622149559395757,-7,-8,-3,4,-17,11,22,-11
1622149559409866,5,-3,9,9,-19,-10,19,30
1622149559409866,-12,2,-8,-9,4,24,8,10
1622149559416823,38,-3,-17,-16,-3,-18,-17,-35
1622149559416823,-22,3,29,41,3,-2,2,31
1622149559432957,-5,-8,-14,-1,-14,-16,8,-6
1622149559432957,6,0,5,0,6,15,-2,6
1622149559433955,-29,3,-7,-5,-13,-9,5,8
1622149559433955,29,-4,-3,9,21,2,-4,-7
1622149559446482,-8,1,-8,-16,-18,-7,1,-7
1622149559446482,7,-2,8,7,19,6,5,1
1622149559462441,-14,-7,5,24,-30,-4,10,-5
1622149559462441,1,0,-5,-3,23,-12,-31,9
1622149559469896,-15,-15,-1,1,-5,19,-2,-6
1622149559469896,9,24,-6,-16,-7,-9,-10,-32
1622149559476277,6,-1,-1,-12,1,-3,1,-19
1622149559476277,-10,-7,-3,2,-1,2,6,16
1622149559492235,4,4,6,-7,19,12,10,-1
1622149559492235,40,-14,7,3,-4,-4,-17,2
1622149559494206,-24,13,5,23,-1,0,8,17
1622149559494206,12,-4,-5,-23,-10,2,-6,-23
1622149559515173,-7,2,-16,-17,0,-7,-1,0
1622149559515173,-4,-14,9,8,6,18,6,9
1622149559517168,28,7,3,0,-16,-22,-4,-12
1622149559517168,-27,-12,-6,4,29,6,-18,-4
1622149559529136,4,7,2,-30,-10,-11,27,0
1622149559529136,-9,-8,-9,24,-17,-19,-18,13
1622149559536094,3,-5,-5,-13,8,26,7,13
1622149559536094,-5,-3,14,20,-10,-13,1,-29
1622149559553049,16,23,8,9,13,14,28,-2
1622149559553049,-11,-12,-2,4,14,18,17,18
1622149559554045,0,2,-10,-26,-11,-1,-5,18
1622149559554045,-9,-13,-7,-17,-9,-10,-11,-6
1622149559566013,3,-1,5,34,-23,5,1,-14
1622149559566013,-7,-5,10,7,-8,-8,4,14
1622149559582967,4,2,-14,14,26,-1,3,0
1622149559582967,3,1,-10,-18,9,5,24,-2
1622149559589974,8,-1,16,10,-17,-2,-36,-9
1622149559589974,-2,6,1,2,-39,-21,-20,0
1622149559595933,2,-6,-2,-13,0,21,64,0
1622149559595933,-33,3,-11,9,1,-15,0,11
1622149559619869,21,-3,-7,2,-17,-21,-28,-3
1622149559619869,-18,-1,-7,-15,7,27,-8,-56
1622149559621864,1,-1,6,-10,20,-6,2,1
1622149559621864,6,3,2,4,-13,7,11,-9
1622149559625877,-14,-13,4,3,3,-1,3,-4
1622149559625877,22,13,-4,-9,6,-8,6,27
1622149559634853,-15,-9,-11,3,-12,5,-17,-3
1622149559634853,26,-9,0,-5,6,-21,-4,-10
1622149559649789,-26,5,-3,6,-1,8,-15,17
1622149559649789,-4,-6,-10,-9,17,-1,34,9
1622149559656795,1,-5,5,-2,-6,22,-8,-11
1622149559656795,3,4,5,-5,-10,-13,-6,-6
1622149559672752,-1,-6,-14,8,16,14,2,4
1622149559672752,-22,-2,7,-8,19,-4,3,-1
1622149559674747,5,4,-3,8,-1,-22,-24,1
1622149559674747,-4,-3,-2,-10,-22,6,-13,-14
1622149559686692,2,-1,-7,-2,18,-2,25,74
1622149559686692,-20,2,-4,3,-4,-5,22,-22
1622149559695691,20,-4,0,-5,-2,-1,-2,-2
1622149559695691,-4,-1,4,11,13,13,-11,-14
1622149559709653,0,-13,-10,-3,-1,2,-19,-1
1622149559709653,12,16,-7,-11,-16,-10,18,33
1622149559716637,-18,-4,6,-9,-12,25,-9,6
1622149559716637,25,-2,17,25,-12,-11,4,-3
1622149559731599,-29,4,4,-16,11,11,-21,-29
1622149559731599,2,-13,2,4,-17,-7,13,1
1622149559740573,4,-4,-6,-19,20,9,11,-21
1622149559740573,0,11,8,3,-12,-6,-9,55
1622149559746556,8,-3,-8,-1,5,-15,-17,-68
1622149559746556,0,-6,-3,0,0,8,14,31
1622149559755507,0,3,1,8,7,-12,-25,-37
1622149559755507,-11,0,-3,-4,-4,15,26,0
1622149559769470,6,8,-4,-14,-8,-37,-6,8
1622149559769470,9,-7,-5,-8,16,19,4,2
1622149559776450,-16,6,4,23,-8,-27,-32,-12
1622149559776450,0,4,2,6,8,-6,6,30
1622149559792433,-2,-6,-14,-31,-13,2,19,-14
1622149559792433,10,2,4,7,-14,16,-10,-13
1622149559794404,-5,-4,-5,4,21,-4,12,25
1622149559794404,16,-2,-8,-1,10,-9,-12,-21
1622149559806396,-26,-7,0,-5,-9,-10,16,16
1622149559806396,-7,-1,1,1,13,4,-17,-12
1622149559815347,0,3,-2,-8,7,6,4,35
1622149559815347,-3,17,1,-6,-26,-13,-14,9
1622149559829333,-5,-3,-6,-8,4,-4,-12,-33
1622149559829333,23,1,15,14,-7,-6,-17,0
1622149559836291,-4,-4,6,-6,-5,6,4,5
1622149559836291,4,-2,-10,-4,4,23,16,-5
1622149559852248,-4,-1,3,5,-7,-12,0,4
1622149559852248,-8,-2,-2,-15,1,-17,-16,-4
1622149559854244,1,0,3,8,-12,-17,12,-5
1622149559854244,-3,-6,-5,5,5,18,-3,-4
1622149559866234,6,5,8,11,0,7,2,4
1622149559866234,-2,-7,-3,-2,7,1,-6,-3
1622149559875187,4,1,9,1,-10,-8,0,-2
1622149559875187,-11,0,-8,-14,12,-8,-5,-5
1622149559897155,4,2,-4,-2,10,-4,7,4
1622149559897155,-9,-1,-4,11,-26,-10,-9,-31
1622149559899123,29,0,-4,-4,11,15,31,27
1622149559899123,-29,-3,-3,-13,-9,-22,-33,-5
1622149559913109,1,-3,1,10,17,3,18,0
1622149559913109,2,-6,-11,-9,-13,4,9,-3
1622149559914083,-32,-3,-1,-18,-12,0,-2,0
1622149559914083,20,-11,0,-4,8,14,0,-16
1622149559926050,11,21,-1,0,-20,-23,-26,9
1622149559926050,-6,-19,-9,5,1,-16,18,7
1622149559935669,-7,18,-3,-4,4,9,4,-4
1622149559935669,2,-2,1,5,-10,2,9,0
1622149559949631,-4,-15,-7,-21,-6,1,-10,-2
1622149559949631,0,5,2,22,1,3,-9,12
1622149559963618,-4,-4,-7,-6,5,2,-7,-38
1622149559963618,20,-1,-3,-13,8,5,44,20
1622149559971597,-4,1,7,3,-6,5,-45,6
1622149559971597,-8,4,9,2,-2,8,-9,-20
1622149559978578,7,-6,-12,0,11,-14,3,0
1622149559978578,-7,-13,0,3,-23,-15,-18,-36
1622149559986557,10,20,-3,-3,-4,30,36,21
1622149559986557,2,3,-2,-9,20,-5,-52,-3
1622149560002490,-20,-4,11,18,-16,9,25,4
1622149560002490,16,-5,-6,-1,16,-5,-2,9
1622149560017450,2,-4,-5,-4,4,-12,6,3
1622149560017450,-4,3,5,-12,-21,-3,-12,-8
1622149560019446,8,2,-6,5,-2,-6,-5,7
1622149560019446,-15,1,3,6,3,7,-18,-32
1622149560032411,4,-7,12,9,19,-3,35,-3
1622149560032411,5,-2,-10,-13,24,11,8,18
1622149560047369,-8,-6,-4,-8,-24,-27,-10,0
1622149560047369,14,2,-10,5,-6,11,5,10
1622149560047369,-19,-16,8,13,19,4,-10,-33
1622149560047369,0,15,-3,-16,3,-29,-19,2
1622149560055349,-7,-5,-6,-4,-14,4,-13,-4
1622149560055349,25,-8,-2,1,6,-33,3,1
1622149560069312,-8,-4,-8,-5,-32,31,50,9
1622149560069312,-8,-1,-6,5,-12,-12,-5,7
1622149560076294,15,1,11,-4,40,12,-18,-4
1622149560076294,-32,-3,-1,5,9,30,2,8
1622149560092275,27,-4,-7,0,-8,-21,-9,1
1622149560092275,-3,1,7,2,14,-15,-4,24
1622149560099264,15,-13,-1,2,-28,5,-11,-29
1622149560099264,-18,8,-3,-20,-17,-6,7,38
1622149560106899,-10,-4,7,-1,19,-1,-2,-5
1622149560106899,-11,8,4,14,10,30,20,20
1622149560115782,15,-11,-12,11,-25,-33,-40,-35
1622149560115782,-12,11,22,-1,12,13,-20,-22
1622149560129366,0,-2,-7,-1,-30,-7,4,30
1622149560129366,-3,-9,9,3,-2,25,18,-23
1622149560136408,-2,4,-1,1,13,15,14,5
1622149560136408,-13,0,-2,-5,-13,-31,-5,-13
1622149560152383,24,5,3,8,17,11,-38,-3
1622149560152383,4,2,7,-2,-4,16,37,15
1622149560158373,-2,0,-19,-10,1,0,-2,17
1622149560158373,5,7,32,16,8,10,-4,14
1622149560175761,-10,-7,-7,-4,-22,-11,-25,-26
1622149560175761,5,-12,-20,-13,1,-7,35,16
1622149560177400,-6,16,19,9,20,8,2,15
1622149560177400,5,-8,-9,-8,-17,-19,1,-12
1622149560189409,-2,5,-5,1,-5,-12,-10,6
1622149560189409,-3,-2,5,-5,5,16,-6,-23
1622149560196901,-2,1,-6,-6,-7,-2,-2,14
1622149560196901,-23,-6,-16,-27,9,-1,11,-13
1622149560212467,16,4,20,21,10,5,21,-1
1622149560212467,2,-3,-6,4,-1,-15,-27,-6
1622149560218892,3,-20,1,-1,-16,6,8,-2
1622149560218892,-2,30,-15,-20,5,5,1,13
1622149560235290,-10,3,4,0,2,-4,10,-3
1622149560235290,-4,-1,-3,10,16,-19,-2,-1
1622149560236780,-5,-2,3,-22,-19,-6,9,10
1622149560236780,9,-6,-4,26,-6,5,12,-1
1622149560249746,-24,-2,-8,-15,21,-1,-11,12
1622149560249746,-3,-9,-2,-3,-13,3,9,-13
1622149560256876,25,12,-5,11,15,-26,-22,39
1622149560256876,2,-6,-5,-10,-9,10,-13,2
1622149560271749,-13,-7,-5,-6,15,16,1,-8
1622149560271749,25,-10,-3,-5,-42,-11,16,11
1622149560278755,-20,4,-2,-2,9,5,5,-24
1622149560278755,9,-1,-3,4,14,5,-2,3
1622149560295797,13,-1,11,25,22,-17,13,-14
1622149560295797,-5,4,19,-10,-37,9,-50,-11
1622149560297792,-2,-5,-7,-2,16,5,11,21
1622149560297792,-8,-7,1,25,0,-17,-44,-52
1622149560309758,-4,-14,-20,-35,-7,14,29,6
1622149560309758,-4,27,-6,19,17,-11,-7,-15
1622149560316740,-7,-8,8,2,-26,18,18,19
1622149560316740,-1,-8,-1,-2,11,-4,7,26
1622149560332388,7,10,0,-3,21,-31,-38,-4
1622149560332388,-8,-6,-4,0,-34,0,13,-10
1622149560338398,19,9,5,1,1,-34,-23,-24
1622149560338398,-15,-7,-11,-6,-16,17,1,4
1622149560355356,5,-9,-3,-13,-4,10,14,33
1622149560355356,-14,10,0,-7,20,2,0,-36
1622149560357326,2,13,-2,-3,-8,-7,-6,12
1622149560357326,10,-16,-1,-1,-3,12,27,10
1622149560369421,-5,7,8,11,-18,-15,0,18
1622149560369421,-7,0,-11,-8,24,22,-23,-26
1622149560376892,-2,-10,-4,1,6,15,29,-33
1622149560376892,-8,-4,-1,-9,-7,-10,-46,27
1622149560392408,7,25,6,23,-4,9,4,-5
1622149560392408,-4,-15,0,-27,-14,-2,34,17
1622149560399333,2,2,4,22,-16,6,-18,-31
1622149560399333,-1,-2,-8,-7,4,1,15,1
1622149560422903,-12,-6,-1,2,-5,6,-3,-19
1622149560422903,30,1,-5,-12,9,-11,-16,18
1622149560424444,-10,0,10,22,0,-9,-14,2
1622149560424444,2,6,3,24,4,12,25,28
1622149560429872,2,-13,-19,-56,-10,16,-18,-26
1622149560429872,4,2,4,15,6,-5,21,6
1622149560435929,-13,6,-9,-9,5,21,-3,16
1622149560435929,7,1,11,14,-5,-30,7,-7
1622149560451924,14,-3,0,14,-9,20,-13,4
1622149560451924,-40,-4,-6,-7,-1,-12,-4,-47
1622149560459351,17,-12,0,-6,6,13,-21,21
1622149560459351,19,13,8,5,-2,-14,-7,-27
1622149560475755,-21,-7,-6,-1,5,1,-18,16
1622149560475755,-8,-2,-5,2,-11,1,16,4
1622149560477391,-25,-7,5,1,8,-13,25,-9
1622149560477391,7,-2,-1,-15,-3,17,-13,-11
1622149560488800,2,-5,10,6,19,-24,-19,-6
1622149560488800,12,-6,-2,10,-30,-3,15,17
1622149560497631,-11,11,-12,-22,15,22,28,-12
1622149560497631,-13,-6,7,27,-1,-1,-3,17
1622149560511967,-2,1,-4,-17,9,-6,-10,-16
1622149560511967,10,1,2,20,11,-2,-12,32
1622149560520273,9,0,-1,-19,-14,5,12,-16
1622149560520273,-8,-4,-15,-16,-3,-5,24,36
1622149560535423,5,6,15,26,7,-11,-11,-15
1622149560535423,-6,-5,-7,-17,-5,-6,-13,-2
1622149560536448,6,-12,-11,-31,-19,-28,-23,13
1622149560536448,-17,14,6,27,36,29,1,-18
1622149560549384,9,-11,-13,-5,-44,-1,10,-3
1622149560549384,-1,4,4,10,21,1,8,37
1622149560557562,3,-9,4,-4,26,-32,-24,-11
1622149560557562,2,9,5,22,-12,-9,17,-13
1622149560572354,-22,-4,-17,-21,0,20,18,-7
1622149560572354,9,-13,2,1,9,12,-35,8
1622149560579384,12,-2,1,8,-14,-2,2,-4
1622149560579384,4,-1,-14,-30,-15,-9,-6,-16
1622149560594871,-15,-2,2,16,21,-9,4,13
1622149560594871,10,-5,-2,5,-15,-2,-5,-7
1622149560596564,-18,-2,-4,1,21,7,-22,-17
1622149560596564,-6,-7,2,-16,-21,-3,14,-3
1622149560609377,11,1,-3,1,-22,5,-14,-11
1622149560609377,-18,-3,-1,-9,24,5,20,0
1622149560617573,21,4,-1,11,-12,-31,0,-5
1622149560617573,-8,-4,8,-19,-24,-6,-40,-6
1622149560632465,22,2,-3,4,16,5,13,2
1622149560632465,-2,2,-2,12,14,-6,5,7
1622149560638465,-12,-7,-11,-12,-15,-2,-6,-3
1622149560638465,-1,11,5,-4,2,-4,18,-29
1622149560655603,-5,-10,8,21,2,-3,-29,7
1622149560655603,21,4,-2,-26,-20,10,-7,-10
1622149560656581,-22,-2,-1,24,12,6,24,2
1622149560656581,18,-8,-9,-11,-17,-2,-19,7
1622149560678000,-22,-3,4,-9,-11,2,18,-4
1622149560678000,3,2,-4,0,12,-2,20,-13
1622149560684346,7,-2,-7,2,0,-15,4,25
1622149560684346,-14,-12,-4,4,13,-1,-10,-17
1622149560692353,-1,-4,5,15,-10,-17,0,-7
1622149560692353,-4,-3,-6,-11,-10,-11,-12,14
1622149560699376,27,13,-8,3,-6,22,25,8
1622149560699376,-7,-4,7,-9,-7,5,4,24
1622149560715747,14,-3,-4,-5,4,5,7,24
1622149560715747,-17,-5,5,-3,-1,-32,-35,-15
1622149560716604,-8,-4,4,18,-4,20,27,-3
1622149560716604,7,-9,-11,-17,-23,-16,-13,-21
1622149560728996,8,14,4,-1,-5,16,0,-17
1622149560728996,-19,4,6,-1,7,5,8,20
1622149560737648,-14,3,8,1,7,-7,3,-5
1622149560737648,15,-8,-4,-3,-4,-3,15,-7
1622149560751596,-3,3,3,-3,-13,-18,-17,-3
1622149560751596,5,-1,-3,11,-6,-4,17,-18
1622149560759330,10,8,-1,-21,21,24,-28,12
1622149560759330,-25,-10,-2,4,5,-11,29,8
1622149560775471,-1,1,-4,-12,31,9,4,5
1622149560775471,7,9,19,17,-41,-5,-17,-22
1622149560776437,-2,-8,2,6,8,-7,-32,9
1622149560776437,-5,-1,5,-6,15,20,36,-23
1622149560788900,7,20,1,5,-9,-9,11,27
1622149560788900,1,-9,-13,-14,8,-5,3,2
1622149560797629,20,-5,7,-5,-2,9,-11,-3
1622149560797629,-19,1,-5,-4,3,-7,-10,15
1622149560812527,0,-12,2,13,14,-10,2,-9
1622149560812527,-7,9,-8,-8,-44,1,8,-6
1622149560818649,-4,-2,-6,-16,14,9,1,-1
1622149560818649,9,1,4,21,7,-14,-47,-16
1622149560835656,12,-2,0,-4,-26,-1,31,23
1622149560835656,-16,-7,-5,-8,7,6,0,13
1622149560836663,-8,-12,-9,-18,-10,-21,1,-11
1622149560836663,2,-4,-12,20,-3,10,6,33
1622149560849660,-3,9,29,15,23,14,4,-13
1622149560849660,5,-8,-5,-1,-3,-12,-27,-20
1622149560857627,-9,0,-7,5,-9,-10,-3,-17
1622149560857627,-16,4,11,-15,16,16,-1,-12
1622149560872328,-9,6,-15,-5,8,-36,8,15
1622149560872328,6,-14,-14,-8,-23,-8,10,2
1622149560880809,-10,-3,12,8,-9,5,-6,8
1622149560880809,-7,8,-11,-18,-1,-1,7,15
1622149560894639,26,-1,9,25,-15,-12,-34,-43
1622149560894639,-13,4,6,-12,-17,12,-3,-1
1622149560901621,17,-14,-7,15,6,16,60,6
1622149560901621,-3,21,8,6,5,-23,-53,-1
1622149560908614,-8,-11,-8,-15,-17,5,19,4
1622149560908614,1,-7,15,26,46,15,2,27
1622149560917560,2,17,-11,-20,-36,-2,-25,-41
1622149560917560,4,-6,9,16,8,-6,9,-14
1622149560932390,-11,-5,-11,-5,1,23,-8,15
1622149560932390,4,8,2,2,39,13,4,-25
1622149560939404,2,-2,-7,-4,-25,-14,5,-4
1622149560939404,-4,-9,4,-7,3,-1,-8,28
1622149560954361,-23,-6,-25,-31,-30,0,-2,-19
1622149560954361,9,4,29,28,48,-3,11,19
1622149560961367,5,-4,1,-14,-7,-7,4,-12
1622149560961367,7,5,-3,4,-18,-19,-10,-9
1622149560968414,25,2,-7,-6,4,57,6,4
1622149560968414,3,-3,-9,-9,-5,-26,-32,3
1622149560977573,-15,-11,1,0,10,8,12,19
1622149560977573,-2,12,-2,-20,2,-6,5,-15
1622149560992429,-6,-2,-5,-9,2,0,10,-1
1622149560992429,-1,1,7,7,-15,-4,-4,-14
1622149560998412,-6,4,11,7,-1,-6,-21,2
1622149560998412,8,-9,-17,-2,3,11,10,-1
1622149561014679,-9,2,10,2,4,-13,-6,-6
1622149561014679,3,2,-14,-8,-3,3,2,0
1622149561021661,-10,-3,2,-12,12,-6,-9,-2
1622149561021661,10,-2,-9,7,14,11,9,7
1622149561029362,-5,-2,-2,-7,-40,-19,-6,-2
1622149561029362,1,-3,-2,8,4,-2,-2,-1
1622149561037659,-3,4,-3,-4,0,-6,1,5
1622149561037659,3,-7,-2,-6,-14,0,-1,-7
1622149561051608,-5,-1,5,7,29,-3,-6,-4
1622149561051608,-1,0,-7,-10,-42,-3,5,-1
1622149561058584,-8,1,-2,1,39,1,-10,0
1622149561058584,5,-2,7,9,-12,10,11,-7
1622149561074626,1,-6,0,-3,-2,-8,-4,-4
1622149561074626,-8,4,-6,-7,4,1,3,-3
1622149561081891,-2,-1,3,9,-4,-2,-1,2
1622149561081891,1,-7,-1,-8,4,-7,-7,1
1622149561098944,-4,-8,-1,-2,0,-4,1,0
1622149561098944,4,18,-1,2,0,5,1,-4
1622149561100942,0,2,2,4,-49,-5,-3,2
1622149561100942,1,-5,-4,-21,36,-13,-4,0
1622149561112397,-8,4,-6,0,-13,-6,-7,-6
1622149561112397,-2,-9,1,5,13,9,2,3
1622149561118972,1,3,4,8,26,7,2,4
1622149561118972,-2,1,4,0,-20,-1,0,-2
1622149561134877,4,-1,-3,5,15,0,3,6
1622149561134877,0,-5,3,9,23,-6,-6,-4
1622149561141047,1,4,-2,0,-14,-2,3,0
1622149561141047,-3,-10,-12,-23,-25,-8,-5,-7
1622149561157998,-5,0,-3,-11,4,-2,-3,-2
1622149561157998,0,-1,1,15,-8,-1,-2,-2
1622149561158968,1,-1,-1,9,10,2,2,1
1622149561158968,3,4,2,-14,-40,-1,-1,4
1622149561171967,-7,-3,-5,7,42,-1,-3,-5
1622149561171967,6,-1,-2,-10,-3,2,4,4
1622149561178918,0,5,2,-11,-8,-5,-1,0
1622149561178918,2,-5,-4,12,-8,6,5,2
1622149561194896,-3,2,6,-2,-11,-4,2,1
1622149561194896,-3,-3,-3,4,44,2,-2,-3
1622149561201850,-1,-3,-1,-3,-2,-1,-3,-1
1622149561201850,3,6,4,4,29,6,7,3
1622149561218108,-3,-8,-9,-9,-92,-17,-7,-8
1622149561218108,-1,-3,4,-3,-19,1,0,-1
1622149561219106,-3,2,2,21,49,6,-2,-4
1622149561219106,2,-3,3,9,54,6,4,3
1622149561232504,1,-1,0,-13,-50,-1,1,1
1622149561232504,3,-17,-14,-25,-42,-14,-11,-6
1622149561238515,-10,12,1,11,1,-9,-4,-4
1622149561238515,5,-2,8,24,37,10,5,4
1622149561254593,-1,3,2,-2,21,1,-3,-2
1622149561254593,-2,-11,-6,-12,11,4,3,1
1622149561261808,1,2,-6,-26,-67,-9,-7,-4
1622149561261808,0,21,6,20,23,7,2,3
1622149561284841,5,-6,1,-10,-45,-3,0,1
1622149561284841,-3,5,-2,5,28,-2,1,-1
1622149561287834,4,-25,-2,-5,28,2,3,2
1622149561287834,-9,11,-8,-23,-46,-9,-7,-4
1622149561291824,-4,7,1,36,21,4,-2,-3
1622149561291824,1,14,9,-3,67,6,6,3
1622149561298802,-5,-17,-15,-29,-90,-19,-12,-9
1622149561298802,0,-4,0,1,8,4,1,1
1622149561314809,1,-4,-1,-12,30,-9,0,1
1622149561314809,-4,-2,-3,9,-57,-3,-1,1
1622149561321725,-4,5,9,36,92,11,-2,-2
1622149561321725,0,-10,-6,-18,-12,-13,-6,-6
1622149561337855,-1,-2,1,1,-19,-7,0,-2
1622149561337855,1,1,-1,-24,-38,2,1,3
1622149561339868,2,2,0,13,31,1,3,1
1622149561339868,-4,-8,-2,11,-5,-7,-4,-6
1622149561351814,1,4,5,5,31,11,3,3
1622149561351814,-3,4,-4,-14,-57,-1,-1,1
1622149561360816,-1,-7,-2,8,13,-8,1,-3
1622149561360816,-2,0,2,8,21,8,1,2
1622149561375118,-5,-3,-4,-21,-31,-5,-2,1
1622149561375118,-5,-9,-5,1,5,-8,-5,-9
1622149561381919,-4,4,1,0,-10,2,1,-1
1622149561381919,-2,11,2,19,23,11,3,5
1622149561398764,1,-15,3,-5,-1,-3,0,1
1622149561398764,0,-5,-3,5,15,-11,-2,-5
1622149561399984,0,-6,-4,-24,4,2,-5,2
1622149561399984,-6,-8,-3,-3,-30,-5,-5,-3
1622149561411894,4,-14,-3,3,19,-5,-1,-5
1622149561411894,3,17,3,4,9,-2,-1,4
1622149561419980,2,5,3,5,9,11,7,4
1622149561419980,2,-8,-6,-16,-65,-18,-4,-5
1622149561435067,-4,-17,-6,-1,2,-8,-5,-6
1622149561435067,1,5,3,7,-1,8,-1,2
1622149561440975,-2,-3,-1,-7,-10,-1,0,-1
1622149561440975,1,-1,-1,-3,3,-4,0,0
1622149561458295,0,7,2,4,12,6,2,4
1622149561458295,-3,-10,-4,4,9,5,-3,-2
1622149561459295,1,3,-3,-5,5,-7,-3,-3
1622149561459295,-5,-2,1,3,-1,1,-1,0
1622149561471890,-3,7,-1,-7,-16,5,0,1
1622149561471890,0,-4,-1,-6,-6,-8,2,-3
1622149561479385,-1,0,2,14,-10,7,1,-2
1622149561479385,-2,-6,-5,-4,21,2,-2,-2
1622149561495111,0,7,-2,-2,1,-10,-4,-3
1622149561495111,1,2,-3,-7,-12,-11,-2,1
1622149561501874,2,-1,3,7,-10,6,1,5
1622149561501874,-2,-3,1,-2,-9,0,0,-2
1622149561518262,-3,5,-2,1,18,-2,-2,-1
1622149561518262,-4,-4,-1,4,5,2,-1,-3
1622149561519875,-1,-2,-1,-9,-5,-1,-1,2
1622149561519875,0,-1,-2,7,-5,-10,-2,-4
1622149561532489,-2,5,0,-6,-9,2,0,0
1622149561532489,-1,-5,1,12,11,5,-1,-3
1622149561546941,0,-1,-3,-12,-16,-8,0,-1
1622149561546941,0,1,1,-6,-6,-2,-1,-1
1622149561555069,-2,-5,-1,6,10,7,-1,1
1622149561555069,2,5,-1,-3,-4,-2,-2,-1
1622149561561894,-2,0,-1,-4,-2,-5,-2,-3
1622149561561894,-1,-1,1,0,-2,4,0,1
1622149561578274,0,4,0,5,9,1,0,-2
1622149561578274,4,-9,-3,-6,-2,-6,-2,-2
1622149561579273,-1,1,-1,-1,-11,-1,-1,-1
1622149561579273,-1,0,1,2,4,4,0,0
1622149561591241,-1,-3,-1,0,5,-2,-2,-4
1622149561591241,-3,-1,-2,-3,-6,0,0,0
1622149561600103,-2,0,-2,-1,1,3,0,0
1622149561600103,-1,-3,-2,-3,-4,-4,0,-2
1622149561615004,-1,1,-1,-5,-9,-1,0,0
1622149561615004,-4,-1,1,14,26,6,-2,-2
1622149561621152,1,-1,0,-4,-11,-3,0,-1
1622149561621152,-2,-2,-2,1,3,-3,-1,-3
1622149561638066,0,1,-1,-2,-7,1,-2,-1
1622149561638066,-4,-2,-2,-6,-7,-1,-1,1
1622149561639066,-3,-5,-3,-1,1,-6,-2,-3
1622149561639066,0,1,-1,-3,-8,0,0,1
1622149561651013,-1,3,2,5,14,2,0,1
1622149561651013,0,-3,-3,-5,-7,-6,-2,-3
1622149561660970,-4,2,-1,0,1,0,-1,-2
1622149561660970,-1,0,1,-3,-6,3,-1,0
1622149561675111,-2,0,-1,1,3,-3,0,-2
1622149561675111,0,-1,-3,-4,-3,-5,-1,-1
1622149561681904,-1,1,0,-1,-4,4,-1,1
1622149561681904,-1,0,1,0,3,-1,1,-2
1622149561698311,-1,-1,-1,0,-4,-5,-2,-3
1622149561698311,0,-1,0,-3,-2,2,-1,1
1622149561699311,1,0,-1,-1,-2,2,0,0
1622149561699311,1,-2,-1,-1,-1,-5,-1,-2
1622149561711884,1,0,1,-2,2,2,-2,-2
1622149561711884,0,0,0,-1,-5,1,-1,0
1622149561720353,0,-2,0,-2,0,-6,-1,-3
1622149561720353,0,-1,-4,-4,-3,-4,-2,-1
1622149561734993,-2,0,1,4,7,5,1,2
1622149561734993,-2,0,0,-2,-7,-3,2,-1
1622149561749427,-1,-2,-2,0,0,-3,-1,-3
1622149561749427,-2,0,0,0,-1,2,-1,0
1622149561758181,-1,-1,-2,-2,-3,1,0,1
1622149561758181,-1,-3,-4,-2,1,-6,-3,-2
1622149561759185,-1,-1,0,1,0,2,0,1
1622149561759185,-1,0,0,-3,-4,0,1,0
1622149561771284,0,-1,-2,-1,0,-5,-1,-2
1622149561771284,-1,-2,0,-1,0,-2,-1,-1
1622149561780943,0,-2,0,-1,-3,5,-1,0
1622149561780943,-1,-2,-1,1,-3,-1,-2,0
1622149561795095,1,-1,0,-3,1,-3,0,-4
1622149561795095,-1,0,-1,-1,-2,5,0,0
1622149561800939,-1,0,0,1,-2,-1,-1,0
1622149561800939,0,-1,-2,-2,-1,-4,-2,-3
1622149561817954,-1,-2,-2,-1,1,-1,-2,-1
1622149561817954,0,-1,-1,-2,-4,3,-2,1
1622149561818953,0,-2,-2,-2,-2,-7,-3,-1
1622149561818953,0,0,-1,0,1,0,0,-1
1622149561831891,-2,-1,0,-1,-2,3,0,0
1622149561831891,-1,-1,0,0,-2,-2,-2,-1
1622149561840315,1,-1,-2,0,-1,-6,0,-4
1622149561840315,-1,-1,-1,0,-1,2,-1,0
1622149561854301,1,-1,-1,-1,-2,2,-1,0
1622149561854301,-1,-1,-2,-3,1,-4,-1,-2
1622149561861353,-1,-2,-1,0,-1,1,0,-1
1622149561861353,-2,1,-2,-1,-3,2,0,2
1622149561877636,-2,-2,-2,-1,1,-3,-1,-1
1622149561877636,0,-3,0,-1,0,-3,-1,-1
1622149561884409,-1,1,-1,0,0,4,0,1
1622149561884409,-1,-2,-1,-2,0,-2,0,-2
1622149561891342,-1,-1,-1,0,1,-6,-2,-3
1622149561891342,-1,-2,-1,0,-2,3,-2,-1
1622149561900952,-1,-1,-2,-2,-1,0,-1,-2
1622149561900952,-1,-2,0,-2,-1,-5,0,-3
1622149561915077,0,-1,-1,-1,1,2,1,0
1622149561915077,0,0,0,-2,-1,0,2,0
1622149561921893,0,-2,-1,0,-1,-6,-1,-2
1622149561921893,0,-1,0,0,2,-2,-2,-1
1622149561936906,-2,-1,1,0,-3,2,-1,1
1622149561936906,-1,0,-2,0,0,-3,-2,-1
1622149561943887,-1,0,-2,-3,-1,-4,-2,-2
1622149561943887,-1,1,-1,0,0,1,1,0
1622149561951088,-1,0,-1,0,-1,0,1,0
1622149561951088,1,0,-2,-3,0,-4,0,-3
1622149561960181,-2,-2,0,-2,-1,1,-1,-1
1622149561960181,0,-1,0,1,-2,2,-1,-1
1622149561975074,-1,-1,-2,-4,0,-4,-3,-3
1622149561975074,-1,-2,0,-1,-1,-1,0,-2
1622149561981935,-2,0,1,-1,0,2,-1,2
1622149561981935,-1,-1,-3,-2,-3,-3,0,0
1622149561997643,-2,-1,-1,1,1,-5,-1,-2
1622149561997643,0,-1,-2,1,-1,3,0,0
1622149562004376,-1,-1,-1,-1,-2,-1,1,1
1622149562004376,-1,-3,-1,-3,1,-5,-1,-3
1622149562011876,0,0,1,1,-3,1,-2,-1
1622149562011876,-3,-1,0,-2,-1,1,-1,1
1622149562020775,0,-1,-1,-2,0,-3,-2,-2
1622149562020775,1,-1,-1,-1,-1,-2,-3,-2
1622149562034894,0,-1,0,-1,-1,2,-1,1
1622149562034894,-1,0,-1,-1,-3,-5,-2,-2
1622149562041796,0,-2,-1,0,0,-5,-1,-2
1622149562041796,0,0,-1,0,-2,3,-1,2
1622149562056732,-1,-2,-1,-2,0,0,-1,-1
1622149562056732,0,-1,-1,-3,0,-5,0,-1
1622149562064399,0,-1,-2,-2,-2,-1,-1,1
1622149562064399,-1,-1,0,0,-2,2,-1,0
1622149562079871,0,-1,-2,-2,-2,-4,-1,-3
1622149562079871,0,0,-1,0,-1,-1,0,0
1622149562082399,0,-2,0,-1,-1,4,0,2
1622149562082399,-3,-2,-1,-2,-1,-2,-2,-2
1622149562095110,0,-1,-1,-2,0,-6,0,-3
1622149562095110,-1,-2,0,0,-1,4,-2,-1
1622149562101041,0,-2,0,-1,-1,-2,-1,-2
1622149562101041,0,-2,-3,-2,0,-6,-1,-3
1622149562118069,-1,0,1,0,0,2,-1,0
1622149562118069,-1,0,0,0,-2,2,0,-1
1622149562124489,0,-2,-3,-2,0,-4,-1,-3
1622149562124489,-2,-1,0,-1,0,-2,-1,-1
1622149562139939,-1,0,-1,-1,-1,2,1,0
1622149562139939,0,-1,-1,-2,1,-3,-1,0
1622149562141908,-1,-1,-2,-2,1,-4,-1,-2
1622149562141908,0,2,1,0,1,4,0,0
1622149562163260,0,-1,-1,-2,-2,-2,-1,1
1622149562163260,-1,-2,-2,0,-1,-6,-2,-2
1622149562164924,-2,0,0,0,-1,2,-1,1
1622149562164924,-2,-1,0,-1,-1,1,1,-1
1622149562177650,0,-2,-1,-1,-1,-5,-2,-2
1622149562177650,-1,-2,-1,-2,0,-1,-2,-1
1622149562183881,-1,0,-1,-2,-3,4,-2,1
1622149562183881,-1,-2,-2,-3,-2,-4,-2,-2
1622149562199852,0,-1,-2,-2,0,-1,-2,-2
1622149562199852,-1,-1,0,-1,2,1,1,1
1622149562201849,-1,-1,-1,0,-1,0,0,0
1622149562201849,1,-2,-1,-2,-2,-5,-2,-2
1622149562215111,-1,-1,-1,0,-2,2,1,0
1622149562215111,-1,0,-1,0,-2,4,-1,0
1622149562221082,0,-3,-1,-3,-1,-4,-2,-3
1622149562221082,-1,-1,0,-1,2,0,-1,-1
1622149562237020,0,-1,0,0,-2,2,-2,-1
1622149562237020,0,0,-2,-1,-1,-4,-1,-2
1622149562244028,-1,-2,-1,1,0,-4,-1,-1
1622149562244028,0,-1,-1,0,-2,4,-1,0
1622149562259847,-3,0,0,-1,-1,-3,0,-1
1622149562259847,-1,0,-3,-3,0,-5,0,-3
1622149562261864,-1,-1,-1,-1,0,2,0,-1
1622149562261864,-1,-2,-1,0,-2,0,0,1
1622149562275107,-1,-1,-3,-4,-2,-5,-1,0
1622149562275107,-1,-2,0,0,-2,-1,-2,-2
1622149562281904,-2,1,-2,1,0,2,0,0
1622149562281904,-1,0,-2,0,0,-2,-1,0
1622149562297580,0,-1,-3,-2,-1,-5,-1,-2
1622149562297580,-2,0,-1,1,-2,4,-1,1
1622149562303568,-1,-1,1,-2,-2,-1,-1,-1
1622149562303568,-2,-2,-2,-1,-2,-6,-1,-2
1622149562320584,-2,-1,-3,0,1,2,-3,0
1622149562320584,-1,-1,-1,-2,-1,3,-1,1
1622149562321581,0,-1,-1,-1,0,-5,0,-3
1622149562321581,0,-1,0,-1,1,0,0,0
1622149562334913,-1,0,0,0,-1,2,1,1
1622149562334913,0,-1,-2,-3,-1,-3,-2,-2
1622149562341894,-1,-2,-1,-2,-2,-3,-2,-3
1622149562341894,0,0,-1,0,-2,1,0,-1
1622149562357673,-2,-1,0,0,-1,-1,0,-1
1622149562357673,0,-2,-1,-2,1,-5,-1,-5
1622149562364485,-1,0,0,0,-1,1,-2,0
1622149562364485,-1,-1,-1,-2,-2,0,0,-1
1622149562379866,-2,-1,-1,-2,0,-7,0,-3
1622149562379866,-2,-1,-2,0,-1,-1,0,0
1622149562381862,-2,0,0,-1,-1,2,0,1
1622149562381862,-1,1,-4,-1,-3,-3,-2,-1
1622149562395597,0,-2,0,-2,-2,-2,-2,-1
1622149562395597,-2,-1,-1,-2,-2,3,0,2
1622149562401878,0,0,-1,-3,1,-1,-1,-1
1622149562401878,-1,-1,-2,-1,0,-5,-1,-2
1622149562417540,-1,-1,-1,0,-2,3,-1,1
1622149562417540,-2,0,-1,0,0,1,0,0
1622149562423550,-1,-2,-3,-1,-1,-6,-2,-3
1622149562423550,0,-2,-2,-2,-1,0,0,-1
1622149562440800,0,1,1,-2,-2,1,0,0
1622149562440800,0,-1,-3,-1,-3,-4,-1,-2
1622149562441802,0,-2,-1,-1,-1,-3,-2,-1
1622149562441802,-1,1,1,-1,0,1,-1,0
1622149562454767,0,0,-2,-2,-1,-2,-1,-2
1622149562454767,0,-2,-1,-2,-1,-7,-2,-3
1622149562462740,-1,-1,0,-1,-1,3,-1,0
1622149562462740,-2,0,0,1,-2,3,-1,1
1622149562477657,0,-1,0,0,-1,-6,-2,-4
1622149562477657,-3,0,0,0,-1,1,-1,1
1622149562483901,-2,-2,-1,-2,-3,2,1,0
1622149562483901,-1,-1,-2,-1,-1,-4,0,-2
1622149562499890,-1,0,-1,0,0,-2,-1,-5
1622149562499890,-1,1,1,0,-1,2,-1,1
1622149562501886,0,0,0,-1,-1,-4,-1,1
1622149562501886,0,-1,-2,-3,-1,-5,-3,-3
1622149562515110,-1,-1,-1,0,-1,4,-1,1
1622149562515110,-1,0,-2,-2,-2,0,-1,0
1622149562521889,0,0,-4,-1,-2,-4,-1,-2
1622149562521889,1,0,1,0,-2,-1,0,0
1622149562536890,-1,-2,-1,1,-1,1,1,0
1622149562536890,0,-2,-1,-1,1,-5,-1,-2
1622149562551131,-1,-1,-2,-1,0,-2,-2,-3
1622149562551131,-1,-1,0,1,-2,3,-1,0
1622149562559873,-1,-2,-1,0,-3,-2,-1,-1
1622149562559873,-1,-2,-3,0,-2,-4,-1,-2
1622149562561870,-1,0,1,-1,-2,3,-1,0
1622149562561870,-2,-1,-1,-1,0,0,0,2
1622149562574496,-1,0,-1,-3,-1,-4,-1,-3
1622149562574496,-1,-1,-1,-1,0,0,0,-1
1622149562582683,-1,0,0,0,0,2,0,0
1622149562582683,-1,2,0,-1,0,-5,-2,-2
1622149562597706,0,0,-2,-2,-1,-3,-1,-3
1622149562597706,-2,0,0,0,-2,3,-1,1
1622149562603692,-1,-2,-1,0,-2,-3,0,-1
1622149562603692,-1,-3,-2,-1,0,-3,-1,-4
1622149562620789,1,-2,0,-1,1,4,-1,2
1622149562620789,-1,-1,0,-2,-1,1,0,0
1622149562621790,-2,-1,-2,-1,0,-4,-2,-3
1622149562621790,-2,0,-1,-1,-1,1,-1,0
1622149562634434,-2,0,-1,1,-2,2,-1,1
1622149562634434,1,-2,-3,-2,0,-5,-2,-2
1622149562643422,-1,-1,0,-1,-1,-1,-2,-1
1622149562643422,0,1,-2,0,-2,3,0,-1
1622149562656948,-1,-2,-1,-2,0,-1,1,-1
1622149562656948,0,0,-3,0,-1,-5,-2,-2
1622149562664452,-2,1,0,0,1,3,-1,0
1622149562664452,-1,-2,0,0,-1,0,-2,0
1622149562679828,0,0,-1,-4,0,-4,-3,-2
1622149562679828,0,-2,-1,0,0,1,-2,-1
1622149562681831,-1,-1,-1,0,-2,2,0,0
1622149562681831,-1,-2,-1,-3,-1,-3,0,-2
1622149562694534,-2,-1,-2,0,-1,-2,0,0
1622149562694534,0,-1,1,-1,0,1,0,1
1622149562702757,-2,-1,-2,0,0,-4,0,-2
1622149562702757,0,-2,-2,-3,2,-4,-2,-3
1622149562717676,-1,-1,0,2,-1,4,-1,0
1622149562717676,-2,-1,-2,0,-1,0,1,-1
1622149562724477,-1,-2,-2,-1,-2,-7,0,-2
1622149562724477,1,1,1,1,-2,2,0,-1
1622149562739902,-1,-1,1,-3,-1,3,0,1
1622149562739902,0,-1,-2,-2,-1,-4,-2,-3
1622149562741873,-1,-1,-2,-1,-1,-1,-1,0
1622149562741873,-1,-1,2,0,0,0,-1,1
1622149562754496,0,-1,-1,-1,-3,-3,-2,-2
1622149562754496,0,-1,-2,0,0,-6,0,-4
1622149562762617,0,0,-1,1,0,1,0,0
1622149562762617,-2,-2,-2,-1,-1,0,0,-1
1622149562777700,0,-2,-2,-2,1,-4,0,-3
1622149562777700,-1,-2,0,-2,-1,2,0,1
1622149562791886,1,-1,0,0,-1,2,-1,1
1622149562791886,-1,-2,-2,-4,0,-3,-1,-1
1622149562799996,0,-2,0,-1,-1,-2,-1,0
1622149562799996,-3,0,-1,1,-2,3,0,2
1622149562807006,-1,0,-1,-2,-1,-2,0,-2
1622149562807006,-1,-1,-2,-1,-2,-4,-1,-1
1622149562814483,-1,0,-1,0,-1,1,1,0
1622149562814483,-1,-1,0,-1,1,-1,-1,-1
1622149562823004,-1,-2,-1,-2,-2,-4,-1,-2
1622149562823004,0,0,-1,1,0,1,1,1
1622149562836900,-2,-1,-2,0,-2,0,-1,1
1622149562836900,-2,-3,-2,-2,0,-4,-1,-3
1622149562843879,-1,-2,0,-2,0,2,-1,-2
1622149562843879,0,-1,-2,-2,-1,2,-1,0
1622149562859889,1,0,-1,-1,-2,-3,0,0
1622149562859889,2,-2,-1,0,-2,-5,-1,-2
1622149562866991,-2,-2,-1,0,0,3,1,0
1622149562866991,-1,-1,-2,-1,-5,-8,-2,0
1622149562874071,-2,-2,0,0,1,-6,-1,-2
1622149562874071,1,1,0,0,-1,2,-2,0
1622149562882646,-2,0,-1,-2,-2,2,0,1
1622149562882646,-1,-1,-3,0,-1,-4,-1,-2
1622149562897655,0,-1,-1,0,0,-1,-2,-2
1622149562897655,-1,0,0,-1,-1,2,1,0
1622149562911961,2,-2,-2,-1,-1,-5,-1,-3
1622149562911961,-1,-1,-1,-1,0,-5,-2,-2
1622149562919502,-2,-1,-2,0,-2,0,0,-1
1622149562919502,-1,-1,0,0,0,0,-1,0
1622149562927019,-2,-2,-2,-1,-1,-5,-1,-2
1622149562927019,0,0,0,1,0,3,1,-1
1622149562934477,1,-1,0,-1,0,2,-2,0
1622149562934477,-1,-1,-2,-2,-1,-5,-1,-1
1622149562950857,0,0,-1,-2,-1,-2,-2,-1
1622149562950857,-1,-1,0,-1,-1,5,0,1
1622149562957656,-1,-2,-2,-2,0,-2,-1,-1
1622149562957656,-1,-3,-1,-3,-1,-4,-1,-4
1622149562964527,0,0,0,0,0,1,1,1
1622149562964527,-2,-2,-1,-1,-1,-1,-2,-2
1622149562979882,0,0,-2,-2,-1,-4,0,-3
1622149562979882,0,-1,0,1,0,3,-1,0
1622149562986938,-2,-1,-1,1,-2,2,-1,0
1622149562986938,-2,-2,-2,-1,1,-7,-2,-2
1622149563002866,-1,-1,-1,0,1,-3,0,0
1622149563002866,-1,-1,-1,0,-3,2,-1,0
1622149563004866,-3,-2,-2,-1,0,-4,-1,-2
1622149563004866,-1,-2,-1,-1,-1,-1,-2,-2
1622149563016865,-1,-1,-1,-1,-1,2,1,1
1622149563016865,-1,0,-1,-2,-1,-1,0,-2
1622149563024412,-1,-1,-2,-2,-1,-5,-3,-1
1622149563024412,-1,-2,-2,-1,-2,3,0,0
1622149563039381,-1,0,0,-1,-1,0,-2,-1
1622149563039381,-2,-1,-1,-2,-1,-5,0,-3
1622149563046340,2,0,-1,0,0,-1,-2,0
1622149563046340,-1,1,0,-1,-1,2,0,2
1622149563063085,0,1,-3,-1,-1,-4,-1,-3
1622149563063085,0,-3,-2,1,0,-3,-1,-1
1622149563068449,0,-2,-1,1,0,4,0,0
1622149563068449,0,-1,-1,-1,-2,-1,-1,-2
1622149563077795,-1,-2,-2,-1,-1,-4,-2,-1
1622149563077795,-1,-1,1,-3,-2,1,-1,0
1622149563084468,-1,-1,0,0,-3,1,0,-1
1622149563084468,-1,-1,-2,-2,0,-5,-1,-2
1622149563099873,-1,-2,0,-1,-1,2,-1,-2
1622149563099873,-2,-1,0,0,-2,1,-1,1
1622149563107022,0,-1,-2,-3,0,-5,-1,-4
1622149563107022,0,-1,-2,0,-1,-4,0,-2
1622149563122897,-2,0,1,1,-2,4,-1,-1
1622149563122897,-2,-2,-1,-1,-2,-3,-1,-1
1622149563124872,-2,-1,-2,-1,-1,-3,0,-3
1622149563124872,0,2,1,1,0,2,-1,1
1622149563137353,-1,0,0,0,-1,0,0,0
1622149563137353,0,-1,-2,-2,-2,-3,-1,-1
1622149563144362,-1,-2,0,0,-1,0,-1,1
1622149563144362,-1,-1,0,-2,1,2,0,-1
1622149563159310,-2,-1,-1,-1,-2,-4,-1,-2
1622149563159310,0,0,0,-1,0,-3,-3,-1
1622149563166299,-3,0,-1,0,-2,3,-1,0
1622149563166299,-1,-1,-2,-1,0,-3,-1,-3
1622149563183233,0,-2,-1,-3,-1,-4,-1,-2
1622149563183233,0,0,-2,1,0,3,1,-1
1622149563185225,1,0,-2,-1,-3,2,0,0
1622149563185225,-2,-2,-1,-1,-2,-4,0,-3
1622149563197227,0,0,-1,-1,-2,0,-1,1
1622149563197227,-1,0,-1,0,-3,1,0,-1
1622149563204172,-1,-3,-2,-1,0,-4,-2,-2
1622149563204172,-1,-2,-1,-1,1,-3,-2,-2
1622149563228302,-1,0,0,1,-1,1,0,1
1622149563228302,-1,0,0,0,-1,0,-1,-1
1622149563229302,-1,-3,0,-2,-1,-3,-1,-2
1622149563229302,-1,-1,1,1,-1,1,-1,1
1622149563242862,-1,-2,-3,-1,-2,0,-1,1
1622149563242862,-1,-1,-2,-3,1,-5,0,-3
1622149563244858,-1,0,1,-1,-1,1,-1,-1
1622149563244858,-1,-1,-2,-1,-2,3,0,1
1622149563257767,-2,-1,-3,0,0,-3,-1,-1
1622149563257767,0,-3,-2,-1,-1,-2,-3,-1
1622149563264497,-2,-1,-1,0,0,2,1,0
1622149563264497,-2,-1,0,-1,-2,0,-1,-3
1622149563279837,1,-2,-1,-2,1,-6,-1,-3
1622149563279837,-1,0,0,-1,-3,3,-1,-1
1622149563286987,-2,-3,-1,-2,-1,0,0,1
1622149563286987,0,-1,-2,-3,-1,-3,-4,-3
1622149563302830,-2,-2,1,-1,0,1,-1,-1
1622149563302830,-2,0,1,1,0,2,0,2
1622149563304824,1,0,-1,-2,-2,-5,-1,-2
1622149563304824,0,-1,-2,-1,-2,0,0,-3
1622149563316896,0,-2,0,0,-2,2,0,1
1622149563316896,-1,-1,-1,-1,-1,-1,-1,-2
1622149563324490,-2,-3,-2,0,0,-6,-1,-2
1622149563324490,-1,-1,1,1,1,3,0,1
1622149563339973,-2,-1,-1,-2,-2,2,0,-1
1622149563339973,1,-2,-2,-1,0,-5,-1,-4
1622149563346955,-3,-1,-2,-1,-1,1,-1,0
1622149563346955,-1,-2,-1,-1,-1,1,0,1
1622149563362395,-1,-1,-2,-1,1,-4,-1,-1
1622149563362395,-2,0,-2,-2,-3,-1,0,-1
1622149563364393,0,0,-1,0,1,2,1,1
1622149563364393,-1,0,-2,-3,-2,-2,0,-1
1622149563377601,-1,-1,-2,0,0,-5,-2,-3
1622149563377601,-2,-1,0,1,0,3,-1,1
1622149563391672,1,0,0,0,0,1,0,0
1622149563391672,0,-1,-3,0,-1,-5,-2,-2
1622149563399833,0,-2,-1,-1,1,1,-2,-1
1622149563399833,-1,0,0,1,0,2,-1,2
1622149563406918,-2,0,-1,-3,-1,-5,-1,-1
1622149563406918,-1,0,-1,-1,1,-2,-1,-2
1622149563422974,0,-1,-2,-1,-2,3,-2,2
1622149563422974,-1,-3,-1,-1,-1,-2,-1,-1
1622149563424921,0,-1,-2,-1,-1,-4,-1,-3
1622149563424921,-2,-2,0,0,-1,1,-1,0
1622149563437407,0,1,-1,-2,-2,-2,-1,-1
1622149563437407,0,-2,-2,-2,0,-4,-1,-1
1622149563444362,9,0,-1,1,-1,2,-1,5
1622149563444362,1,-1,0,0,-3,2,1,2
1622149563459777,-3,-1,0,-2,-1,-6,1,-4
1622149563459777,-2,-2,-2,-1,0,-2,-1,-2
1622149563467016,-6,-1,0,1,-1,3,-1,-2
1622149563467016,-2,-3,-1,0,1,-3,-1,-1
1622149563483337,-3,-2,-1,-3,-1,-4,-2,-2
1622149563483337,-1,-1,1,1,-1,3,0,0
1622149563485787,-2,-1,-2,0,0,0,-2,-1
1622149563485787,-2,0,-2,-1,0,-5,-1,-3
1622149563497029,0,-1,-2,0,-1,2,0,-2
1622149563497029,-1,-1,0,-1,-1,2,-1,1
1622149563505039,-3,-2,-1,-3,-1,-5,0,-4
1622149563505039,-1,0,-1,-2,-1,-3,-2,0
1622149563520019,1,1,0,0,0,3,0,-1
1622149563520019,1,-1,-3,0,-3,-2,-1,-2
1622149563527019,-2,-2,-1,-3,-2,-5,-1,-2
1622149563527019,-1,-2,-1,-1,-1,2,-2,1
1622149563542426,1,0,0,1,-2,0,0,0
1622149563542426,-1,0,-2,-1,1,-6,-2,-3
1622149563544393,-2,0,1,0,0,1,1,-1
1622149563544393,-2,-1,0,-2,-1,2,0,0
1622149563556999,-1,-2,-1,-3,-2,-4,-2,-2
1622149563556999,-1,-2,-1,0,0,-1,-1,-1
1622149563566005,-1,0,0,0,-2,3,-1,0
1622149563566005,-1,-2,-1,-2,-2,-4,-1,-3
1622149563579865,-1,-2,-2,-1,0,-3,-2,0
1622149563579865,-1,0,0,1,-2,3,-2,1
1622149563586876,-2,-1,-1,-1,-2,0,-1,-1
1622149563586876,0,-3,0,-1,0,-4,-1,-3
1622149563602852,-2,-1,0,0,0,1,0,0
1622149563602852,-1,-1,-1,-2,-1,0,-1,0
1622149563604204,-1,-1,-6,-2,0,-5,-3,-2
1622149563604204,0,0,-2,0,0,-2,-1,-1
1622149563625826,-2,-2,-1,1,-1,1,0,-1
1622149563625826,-2,-2,-1,-3,0,-3,-1,-1
1622149563626826,-1,1,0,-1,0,-4,0,-2
1622149563626826,-2,1,1,-2,0,3,-1,0
1622149563639869,-2,1,-3,-2,-1,-1,-1,1
1622149563639869,-1,-1,-2,-1,-1,-5,1,-2
1622149563646847,0,-2,-2,-1,0,3,-2,-1
1622149563646847,1,1,0,0,-2,0,1,1
1622149563663362,0,-1,-3,-1,-2,-3,-2,-1
1622149563663362,-1,-1,-2,-1,0,-2,-1,0
1622149563664238,-1,-1,-1,1,-1,3,0,2
1622149563664238,-1,-2,-2,-1,0,-3,-1,-2
1622149563676998,1,-1,1,-2,0,-3,-1,-2
1622149563676998,-2,-2,0,-1,-3,2,-1,0
1622149563692922,0,-1,-1,1,-1,1,0,-1
1622149563692922,1,-1,-2,-3,-1,-6,-1,-1
1622149563699868,-2,-1,-1,-1,-1,1,1,0
1622149563699868,-2,0,0,-1,0,2,0,1
1622149563706963,-2,-1,-1,-2,1,-6,-2,-3
1622149563706963,-2,1,-1,1,0,1,-2,0
1622149563721894,0,0,1,0,-1,2,-1,2
1622149563721894,0,0,-2,-2,-1,-2,-1,-3
1622149563729495,0,-2,-1,-1,-3,-4,-1,-3
1622149563729495,-2,-2,-1,0,-2,3,0,0
1622149563736898,0,-2,-1,-1,-1,-1,-1,0
1622149563736898,0,-1,-2,-3,0,-6,-2,-4
1622149563745955,-1,0,0,0,-1,2,-1,-1
1622149563745955,-1,-1,0,-2,-1,1,-1,0
1622149563759800,1,-1,-3,-1,1,-3,-1,-4
1622149563759800,0,-1,0,0,0,1,-2,2
1622149563766884,-1,-1,1,1,-1,2,1,1
1622149563766884,-1,-2,-2,-2,-2,-5,-1,-2
1622149563782354,-2,0,0,0,1,-4,-1,-2
1622149563782354,-1,-1,0,0,-1,2,0,2
1622149563789363,-2,-2,1,-1,-1,-1,-1,-1
1622149563789363,0,-2,-1,-2,-1,-5,-1,-2
1622149563797052,0,0,0,-1,-1,0,-1,1
1622149563797052,0,-1,-1,-1,-1,0,-1,0
1622149563805202,-1,1,-2,-3,-1,-5,-3,-2
1622149563805202,0,-2,-2,-1,0,0,-1,0
1622149563820080,0,-1,-1,0,-2,3,0,0
1622149563820080,0,-2,-2,-1,0,-3,-1,-3
1622149563827040,-2,-2,-2,-1,1,-3,0,-1
1622149563827040,-1,1,-1,-1,-2,4,-1,0
1622149563842093,0,-1,-2,-1,-1,-1,-1,0
1622149563842093,1,-2,-2,-1,-1,-4,-3,-3
1622149563849512,1,0,-1,-2,1,1,1,-1
1622149563849512,-2,-1,0,0,-1,-1,-2,-1
1622149563857031,-1,-3,-1,-2,-2,-4,0,-2
1622149563857031,-1,-1,-1,0,-3,1,-1,0
1622149563865954,-1,-1,0,-1,-2,2,0,1
1622149563865954,-2,0,-1,-2,-2,-3,0,-2
1622149563879876,0,-2,-1,-1,-1,-3,1,-2
1622149563879876,-1,-2,1,1,0,3,2,2
1622149563886959,-2,-1,-2,-1,-2,-2,-1,-1
1622149563886959,0,-2,-1,-1,-1,-4,-1,-2
1622149563901868,-1,-1,1,-1,-1,2,-1,0
1622149563901868,-2,-1,-1,1,-2,-1,0,-1
1622149563908988,-2,-3,-3,-1,0,-5,-1,-3
1622149563908988,0,0,-1,1,0,0,0,-1
1622149563917022,0,1,-1,0,0,2,-1,2
1622149563917022,0,-1,-2,-3,-2,-4,0,-3
1622149563926043,-1,-1,-1,-2,-1,-2,-1,-1
1622149563926043,0,-1,-1,1,0,2,-1,1
1622149563940015,-2,-2,-1,-1,-1,-1,-1,-1
1622149563940015,-1,-1,-2,-2,-1,-4,-1,-3
1622149563947052,0,-1,1,2,-2,2,-1,1
1622149563947052,-2,-1,-1,-1,-1,0,-2,0
1622149563962668,0,-2,-3,-3,-1,-4,0,-3
1622149563962668,-1,0,0,0,-1,0,0,0
1622149563968930,-2,-1,-1,-1,0,3,-1,1
1622149563968930,-1,-1,-1,-1,-1,-4,-1,-1
1622149563985904,-1,-2,0,0,-1,-2,-1,-3
1622149563985904,-2,-2,-1,-1,-2,0,-2,0
1622149563987869,-1,-1,-3,-2,-2,-3,-1,-1
1622149563987869,-1,0,-3,-2,0,-5,-1,-2
1622149563999864,-2,0,-1,1,-3,3,-1,1
1622149563999864,-1,-1,-1,-1,1,-1,-1,-1
1622149564006990,1,-3,-1,-3,0,-6,-2,-2
1622149564006990,0,-1,0,0,-3,0,0,1
1622149564021976,-3,0,0,-1,-2,3,0,0
1622149564021976,-1,-1,-2,-1,-1,-5,-1,-2
1622149564029465,-2,-1,-1,2,0,-2,-1,-1
1622149564029465,-2,0,1,0,0,2,-1,1
1622149564045815,-1,0,-2,-1,-2,-3,-1,-1
1622149564045815,-1,-1,-2,-1,-1,-4,-2,-3
1622149564047258,-1,0,0,0,-1,2,0,-1
1622149564047258,-2,-1,-1,0,-1,1,-1,0
1622149564059872,-2,-2,-1,0,0,-6,-2,-4
1622149564059872,0,0,-1,-3,-1,2,0,2
1622149564066974,0,-1,2,-1,-1,1,-1,1
1622149564066974,-1,-1,-1,-3,-2,-5,-1,-4
1622149564082416,-1,-2,-2,-1,0,0,0,-2
1622149564082416,0,-1,0,2,-2,3,-2,0
1622149564089399,0,0,-3,-1,-1,-2,-2,-2
1622149564089399,-1,-2,-1,-2,-1,-3,-2,-3
1622149564105856,-1,-2,1,0,-1,1,-1,1
1622149564105856,-1,-1,-2,0,-1,-1,0,1
1622149564107487,1,0,-3,-3,-1,-5,-1,-3
1622149564107487,0,0,0,0,-1,3,1,0
1622149564119770,-2,0,1,0,0,3,0,-1
1622149564119770,-2,-1,-2,-3,-1,-4,0,-3
1622149564126806,-1,-1,0,0,-1,-2,-1,-1
1622149564126806,0,-2,1,-1,0,3,0,1
1622149564150790,0,-1,-2,-2,-1,-3,-1,0
1622149564150790,-2,-2,0,-2,0,-4,-2,-2
1622149564151757,0,0,0,0,-2,2,1,2
1622149564151757,-2,-1,-1,0,-1,-1,0,-1
1622149564165720,-2,0,-1,-3,0,-3,-1,-2
1622149564165720,-1,-1,0,0,-1,0,-2,0
1622149564166716,-1,-3,-1,1,0,3,-1,0
1622149564166716,1,-1,-1,-3,0,-5,-2,-3
1622149564179709,2,-2,0,0,-2,-1,1,-1
1622149564179709,-1,0,-1,1,-1,2,-1,1
1622149564186664,-3,-2,0,-3,0,-2,-2,-1
1622149564186664,-1,-3,-2,-1,-2,-4,-2,-2
1622149564202618,0,-1,-1,0,-2,2,1,2
1622149564202618,-2,-1,1,-1,-2,-2,1,0
1622149564209499,0,-2,-1,0,-2,-5,-2,-2
1622149564209499,-1,-1,-1,-1,1,2,-1,1
1622149564225835,-2,-2,-1,-1,0,0,-1,-1
1622149564225835,-1,0,-2,-1,-1,-3,1,-3
1622149564227486,-3,-1,-1,-1,0,-2,0,0
1622149564227486,1,1,-1,0,-2,1,0,0
1622149564239856,-1,-1,-2,-1,-2,-2,0,-1
1622149564239856,0,-1,-2,0,-1,-4,-2,-1
1622149564246838,-2,-1,-2,0,-1,3,0,0
1622149564246838,-2,0,-1,-3,-1,-2,0,-3
1622149564270869,-2,0,-2,-1,1,-4,-2,-2
1622149564270869,0,-2,-1,-3,-2,1,0,0
1622149564271866,-1,-1,-1,0,-1,0,0,1
1622149564271866,-1,-2,-1,-1,-1,-5,-2,-2
1622149564285852,-1,-1,1,-2,-2,-1,-3,-1
1622149564285852,-1,0,-1,-1,0,2,-1,1
1622149564287846,0,0,-2,-4,-1,-1,-2,-3
1622149564287846,-1,-1,-1,-1,-2,-2,-1,0
1622149564299844,0,-1,0,1,0,3,-1,1
1622149564299844,-3,-2,-2,-1,1,-1,0,-1
1622149564306819,0,-3,-2,-2,-2,-6,-1,-4
1622149564306819,-1,0,0,0,-3,0,1,0
1622149564321901,-1,0,-1,-1,-1,2,0,1
1622149564321901,-1,-1,-2,-1,-1,-3,-1,-2
1622149564329489,0,0,-1,0,0,-1,-1,1
1622149564329489,-2,-2,0,0,-1,3,1,0
1622149564345823,-1,0,-2,-2,0,-4,-2,-1
1622149564345823,-1,-2,0,-2,1,-4,0,-2
1622149564346821,0,0,0,0,1,3,1,0
1622149564346821,-2,-2,-2,-1,-2,-1,-3,-1
1622149564359866,-1,0,-4,-3,-2,-7,-2,-3
1622149564359866,0,0,0,0,-1,3,-1,-1
1622149564367018,-1,1,-1,-1,-3,-1,1,-1
1622149564367018,0,-1,-2,-3,1,-4,0,-1
1622149564382762,-1,-2,-2,0,-1,-1,0,0
1622149564382762,-1,-2,1,1,-2,2,0,1
1622149564388748,-1,-1,-1,0,-1,-2,-3,-3
1622149564388748,0,0,-1,-1,0,-2,-2,0
1622149564405068,-2,0,-1,1,-2,3,0,0
1622149564405068,1,-1,-1,-2,-3,-1,0,-1
1622149564406704,0,-1,-3,-3,-2,-4,-2,-3
1622149564406704,-1,-1,0,-1,0,2,0,0
1622149564428283,0,-1,-1,0,-2,0,0,-1
1622149564428283,-1,-1,-1,-3,1,-5,-3,-3
1622149564429296,-1,-1,1,0,0,1,-1,0
1622149564429296,-1,-1,-1,1,0,2,0,-1
1622149564441872,-1,-1,0,-2,0,-3,-1,-2
1622149564441872,0,-1,0,-1,-1,-2,-1,-3
1622149564448851,-3,-1,-1,-3,-1,2,0,0
1622149564448851,-2,-1,-1,0,-1,0,0,-1
1622149564465804,1,-3,0,-2,-1,-4,-3,-4
1622149564465804,0,0,-1,-1,0,2,-1,-1
1622149564466807,-1,-1,-1,-2,-2,3,-1,0
1622149564466807,0,-1,-2,-1,-1,-5,-2,-1
1622149564479533,-1,0,-1,-1,-2,-2,-2,0
1622149564479533,0,-1,-2,1,-3,1,-1,1
1622149564487666,1,-2,-3,1,-1,-5,0,-3
1622149564487666,-1,1,-3,-1,-1,-3,0,-2
1622149564501755,0,-1,-1,-1,0,4,1,-1
1622149564501755,-1,0,-1,-1,-1,-1,-2,0
1622149564509456,0,-2,-1,-2,1,-5,-1,-3
1622149564509456,0,-2,-1,0,-2,2,-1,1
1622149564525811,-2,-1,-1,0,0,-1,-2,0
1622149564525811,-2,-1,-1,-3,1,-4,-1,-2
1622149564526815,-1,-1,-1,-1,-1,0,-1,0
1622149564526815,-1,-2,0,2,0,3,-1,0
1622149564538848,-1,-1,-3,-2,-1,-2,-2,-2
1622149564538848,-1,-1,0,2,-2,-1,-1,-1
1622149564547824,-2,1,0,0,-4,2,0,1
1622149564547824,0,-1,-2,-4,0,-3,-2,-2
1622149564561784,-1,-1,-1,-1,-1,-5,-1,-2
1622149564561784,-1,-1,-2,-2,-3,1,0,1
1622149564568765,-2,0,0,2,-1,1,0,0
1622149564568765,-1,-1,-3,-2,-1,-5,-1,-1
1622149564585412,1,-1,1,1,0,3,-1,1
1622149564585412,-1,-2,-2,1,-1,1,0,0
1622149564587406,1,0,-2,-3,-1,-4,-1,-2
1622149564587406,0,-1,-1,-1,-1,-2,-1,0
1622149564598955,-1,1,0,2,-1,2,0,1
1622149564598955,-1,0,-1,0,-2,-1,-1,0
1622149564607784,1,-1,-4,-1,-3,-4,-2,-2
1622149564607784,-2,-2,-1,-1,0,1,-2,-1
1622149564621874,-1,-1,-2,-1,0,-1,0,0
1622149564621874,-2,-2,-2,-1,0,-3,-1,-2
1622149564629478,0,0,0,0,-1,0,-2,0
1622149564629478,0,-2,1,0,-1,2,-1,-2
1622149564645825,-1,-2,-1,-1,-1,-4,-1,-2
1622149564645825,-2,-1,0,-2,1,-2,-1,-2
1622149564647536,-1,0,-1,-2,0,2,0,0
1622149564647536,-1,1,-1,-2,-4,-3,-1,-2
1622149564659535,-1,-3,-1,-1,1,-3,-1,-4
1622149564659535,-1,-1,0,0,-3,1,0,0
1622149564667873,-1,-2,-1,-1,-1,1,-1,-1
1622149564667873,-2,-3,-3,-1,-1,-5,-1,-2
1622149564682782,-1,-1,0,0,-1,1,-2,2
1622149564682782,-1,0,-1,-2,0,0,0,-1
1622149564688769,-2,-3,-1,-3,1,-5,-2,-2
1622149564688769,0,-1,1,1,0,-1,-1,1
1622149564704764,-1,-1,-1,-2,-3,2,0,1
1622149564704764,0,-2,-2,-3,-1,-3,0,0
1622149564712013,-1,-2,-2,-1,0,-4,-2,-2
1622149564712013,-3,-1,-2,0,0,2,-1,-1
1622149564718808,-2,-2,0,0,-2,-1,-1,-1
1622149564718808,-1,-1,-3,-2,0,-3,-3,-1
1622149564727795,-1,1,-1,2,-1,1,-1,2
1622149564727795,-1,0,0,0,-3,1,0,1
1622149564741887,-1,-1,-3,-2,-1,-5,-2,-4
1622149564741887,-2,-1,-1,1,-1,-1,-1,-1
1622149564749510,-2,0,-1,-1,0,3,0,-1
1622149564749510,-1,0,-1,-1,0,-2,0,0
1622149564765133,-1,-1,-1,-3,-1,-4,-1,-2
1622149564765133,-1,-1,2,-1,-1,2,0,1
1622149564771797,0,0,0,-2,-2,-1,-1,-1
1622149564771797,-1,-1,-2,-3,1,-4,0,-4
1622149564779409,-1,1,-2,1,-2,3,0,-1
1622149564779409,0,0,-2,0,-1,2,-1,-2
1622149564787856,-1,-1,-1,-3,-1,-2,-1,-2
1622149564787856,-2,-1,-1,-1,1,-1,-2,-1
1622149564801834,-1,-1,-2,-1,-2,2,0,1
1622149564801834,0,0,-2,-1,-1,-3,-2,-2
1622149564808798,0,-2,-1,0,-2,-5,-1,-2
1622149564808798,-1,1,0,-1,-2,4,-1,0
1622149564825167,-1,0,-1,-2,-1,1,-1,-1
1622149564825167,-1,-3,-1,0,-1,-5,-2,-2
1622149564831313,-1,-3,0,-2,0,2,-1,-1
1622149564831313,-2,0,-2,-2,-2,1,-1,1
1622149564839324,-1,-1,-2,-2,0,-5,-3,-2
1622149564839324,0,-1,-1,0,-1,-3,0,-1
1622149564854257,-2,-2,0,2,-1,3,-1,1
1622149564854257,0,-2,0,-1,-1,-3,0,-2
1622149564862757,-1,-1,-2,-1,0,-4,-1,-3
1622149564862757,0,1,0,0,-1,3,0,2
1622149564868745,0,-2,-2,-1,-1,0,-3,-1
1622149564868745,-1,-2,-4,-4,-2,-6,-3,-3
1622149564892894,-1,-2,0,0,0,0,-1,1
1622149564892894,-2,1,-1,-2,1,0,1,0
1622149564894889,-1,-1,-2,-2,-1,-5,-1,-3
1622149564894889,0,2,-1,0,-1,0,-2,0
1622149564908393,-1,0,-1,0,-1,3,-2,2
1622149564908393,-2,-2,-3,-1,-1,-2,-2,-1
1622149564909394,-1,2,-1,0,-1,-3,0,-3
1622149564909394,-2,-2,0,1,-2,2,-1,-1
1622149564922379,-2,-1,-1,-3,-2,-1,1,-1
1622149564922379,0,-3,-3,-2,-1,-5,-2,-3
1622149564928907,-1,-1,-2,0,-2,1,0,0
1622149564928907,0,-1,1,0,-2,2,2,1
1622149564944867,-1,0,-1,-3,-2,-5,-1,-2
1622149564944867,-1,0,0,-1,-1,0,0,0
1622149564951848,-2,-1,0,-1,0,0,-1,1
1622149564951848,0,-1,0,-1,0,-2,-2,-3
1622149564967928,0,-2,-3,-1,0,-3,0,-2
1622149564967928,-2,-1,-2,-1,-1,2,0,1
1622149564969923,-1,-1,-1,0,-1,-1,-1,0
1622149564969923,-1,-1,-1,-1,-2,-4,1,-1
1622149564982755,0,0,0,2,-1,2,0,1
1622149564982755,-2,-2,-1,-1,1,2,0,-1
1622149564988743,0,-3,-1,-3,-2,-3,-2,-3
1622149564988743,-1,-2,0,0,0,-2,-1,-2
1622149565013372,-2,1,1,-1,-2,2,-1,1
1622149565013372,-1,-1,-2,-3,-1,-5,-1,-3
1622149565014242,-1,1,-1,0,-2,-3,0,-2
1622149565014242,-2,0,-1,-1,0,3,-2,1
1622149565028013,0,-2,-1,-2,-1,-1,-2,0
1622149565028013,-1,-1,0,-2,-2,-5,-1,-3
1622149565030038,-1,0,2,0,0,3,-1,-1
1622149565030038,-1,-2,-3,-1,-1,0,0,0
1622149565042364,-1,-1,-2,-3,0,-5,0,-3
1622149565042364,-1,0,-1,0,0,1,0,2
1622149565049345,-1,-1,-2,-1,0,1,0,0
1622149565049345,0,-1,-1,-3,1,-3,-2,-1
1622149565064331,-1,-2,-2,0,0,-4,0,0
1622149565064331,-1,-2,1,2,0,3,-1,1
1622149565071311,0,-1,0,-1,-2,-1,-1,0
1622149565071311,-1,-1,0,-3,0,-5,-1,-2
1622149565087972,-1,-1,0,-2,-1,4,-1,-1
1622149565087972,0,0,-1,-2,-2,0,-1,-1
1622149565089967,0,0,-2,0,0,-5,0,-1
1622149565089967,-1,-1,-2,0,-2,1,-1,-2
1622149565102701,0,-1,-1,0,-2,1,0,0
1622149565102701,-1,-1,-2,-2,1,-5,-2,-3
1622149565109436,-1,-2,-1,0,-1,-4,0,-2
1622149565109436,-1,0,0,-1,-1,4,1,0
1622149565124837,-2,-2,-1,-3,-1,-2,0,-2
1622149565124837,0,-1,-2,-2,-1,-5,-3,-1
1622149565131931,-2,0,0,0,0,2,-1,0
