timestamp,emg1,emg2,emg3,emg4,emg5,emg6,emg7,emg8
1622149418298869,-7,-13,12,21,4,11,7,-1
1622149418298869,-1,26,-7,-5,15,-30,-11,-6
1622149418313849,18,-4,-8,-7,-24,9,-24,-2
1622149418313849,5,6,-3,3,-22,5,-13,2
1622149418314846,-10,-18,4,-14,7,-2,-2,-5
1622149418314846,-9,-7,5,-3,-1,2,-1,-5
1622149418329778,20,12,-9,2,7,1,4,1
1622149418329778,-30,-7,-4,5,1,-5,2,3
1622149418335789,14,5,-10,-27,1,8,28,6
1622149418335789,-10,2,-2,-2,-16,4,-33,-5
1622149418350819,-12,-13,4,7,7,-3,46,2
1622149418350819,12,-15,-13,-3,0,3,-17,-9
1622149418358789,0,24,-4,-27,9,-14,-13,7
1622149418358789,1,-14,-9,-18,-17,-5,-2,-3
1622149418373832,-14,3,0,7,-19,21,1,6
1622149418373832,0,2,6,6,29,-19,17,-20
1622149418374845,-5,-10,-4,-3,-6,8,1,1
1622149418374845,5,1,-8,-1,-10,-10,-6,0
1622149418389777,0,-9,-7,-9,-7,1,-14,-13
1622149418389777,2,-4,21,24,1,1,-2,11
1622149418395762,-5,1,1,2,11,-12,11,3
1622149418395762,23,3,-8,-2,-3,5,-4,-4
1622149418410819,-37,-20,-5,-9,3,-2,0,-5
1622149418410819,2,11,-15,-6,-12,-17,-26,6
1622149418418873,7,9,48,12,-1,11,-4,-2
1622149418418873,7,-10,2,23,5,-6,32,5
1622149418433816,-2,7,6,-10,-15,-7,-12,15
1622149418433816,-2,-6,-15,-17,20,3,-21,-8
1622149418434795,3,-1,-22,-10,-10,6,-12,-6
1622149418434795,-5,-8,22,30,-10,-15,22,7
1622149418449752,1,9,-7,-6,11,5,-5,-18
1622149418449752,-6,3,0,-6,-11,12,4,-16
1622149418455764,3,-8,-11,3,11,3,1,12
1622149418455764,-4,-7,6,-4,18,1,25,21
1622149418470697,8,-1,-18,-6,0,2,2,-6
1622149418470697,8,8,16,5,2,-3,-26,6
1622149418478896,-18,-2,-4,-4,-21,-29,23,-13
1622149418478896,9,4,-13,-3,21,16,-12,2
1622149418493819,3,-15,1,-6,-20,-20,9,2
1622149418493819,24,18,-5,-11,-24,10,-10,-13
1622149418494788,-14,-1,13,29,-10,-21,-1,14
1622149418494788,-18,0,1,-18,9,19,18,-12
1622149418509791,18,-11,-10,2,7,-7,-30,5
1622149418509791,6,7,2,-4,-7,-8,12,-10
1622149418515857,3,-9,-15,-8,5,14,-13,-24
1622149418515857,-6,2,4,-19,-13,7,-15,23
1622149418530968,6,16,8,17,20,4,12,-15
1622149418530968,-14,-14,3,0,-27,5,38,17
1622149418538920,12,1,-7,-9,4,-8,-54,-42
1622149418538920,-25,-4,-2,25,14,16,12,-6
1622149418553791,-7,-3,-4,-4,19,-10,-16,-11
1622149418553791,7,2,-9,-16,-36,-10,3,10
1622149418554760,18,-2,3,3,-15,2,4,5
1622149418554760,-18,-12,-1,-9,7,1,-2,-10
1622149418569981,3,21,2,-4,5,5,24,4
1622149418569981,-13,2,-8,12,-1,-7,-27,-1
1622149418575805,9,-2,6,-7,15,4,16,8
1622149418575805,5,-10,-11,-7,-19,-19,-55,-7
1622149418590772,3,15,27,10,-15,1,54,10
1622149418590772,-5,-8,-5,-1,21,19,9,-1
1622149418598776,-2,1,-4,5,-13,20,8,14
1622149418598776,1,-5,-5,-11,-4,-27,-3,-6
1622149418613711,-8,-5,-7,-5,12,9,1,-1
1622149418613711,1,18,7,7,11,-7,-38,-5
1622149418620721,-5,-4,-12,3,-2,7,11,14
1622149418620721,13,-5,20,29,-2,-6,19,17
1622149418630759,-10,-10,-16,-11,-17,1,-17,-23
1622149418630759,-1,2,-1,1,30,8,-3,5
1622149418635745,-1,-6,-5,-8,-24,9,0,4
1622149418635745,-12,-6,-11,-27,0,3,1,-8
1622149418650875,0,-8,0,19,-19,-6,-11,19
1622149418650875,4,1,5,-1,15,7,19,4
1622149418658894,-6,13,-4,4,12,-11,-5,-7
1622149418658894,5,-4,7,-4,-10,-18,-35,-10
1622149418673904,2,-3,1,-7,6,0,36,5
1622149418673904,-22,-3,-10,-3,17,1,-12,-11
1622149418681022,6,-8,9,2,-21,-2,12,0
1622149418681022,11,21,-3,-1,-4,-20,-13,3
1622149418690000,-8,9,-5,15,15,-16,-11,1
1622149418690000,-9,-5,11,-3,-26,-9,-41,-14
1622149418696452,0,1,8,-9,17,-5,20,6
1622149418696452,2,-5,-7,4,-7,38,28,6
1622149418711421,-8,-13,-9,-5,-8,-5,-15,-16
1622149418711421,15,10,11,9,-9,-10,8,25
1622149418718789,-3,-9,0,6,12,-6,-24,-2
1622149418718789,-5,6,3,0,11,16,54,3
1622149418733937,28,-3,-13,-13,-9,1,-32,-10
1622149418733937,-25,-26,4,6,-4,4,10,-9
1622149418740839,-14,31,0,0,22,-12,-24,22
1622149418740839,7,5,11,11,-7,18,35,1
1622149418749868,-7,-11,-5,-19,-2,-3,-13,2
1622149418749868,10,-4,-21,-3,-1,0,1,-9
1622149418755737,3,-3,24,6,-19,4,-12,2
1622149418755737,-8,-5,-9,-11,15,13,30,-10
1622149418771396,-3,-2,-4,0,-26,-23,-23,14
1622149418771396,0,6,3,-11,9,13,8,2
1622149418778023,-2,-3,-15,-4,-3,-7,-15,-5
1622149418778023,0,2,-2,3,-15,2,1,-6
1622149418793508,6,-6,1,-9,13,10,0,3
1622149418793508,-2,-3,9,1,-19,1,20,2
1622149418801337,-20,-3,-7,1,4,-31,-10,-7
1622149418801337,7,4,0,16,-7,-6,-34,-10
1622149418817096,0,0,-11,-13,12,15,30,16
1622149418817096,-7,-3,-1,5,3,-20,-16,-6
1622149418817932,1,-4,6,7,12,14,18,0
1622149418817932,-7,-7,-3,-9,-8,-29,-34,-15
1622149418830976,2,-1,15,33,-22,7,18,12
1622149418830976,8,3,-11,-25,12,13,-5,15
1622149418838920,1,-12,-2,3,-12,17,3,-13
1622149418838920,-4,-3,-14,-10,29,-5,-39,-10
1622149418853738,0,5,-1,0,-13,-8,16,-7
1622149418853738,2,3,9,-3,-4,7,17,4
1622149418861370,-3,-7,-9,-8,15,-3,10,1
1622149418861370,7,7,-2,-1,-19,-1,-10,-9
1622149418877082,-12,5,13,-4,-9,-17,-32,-6
1622149418877082,13,-2,2,19,12,11,-1,-5
1622149418877082,5,-4,-1,9,8,-23,6,24
1622149418877082,5,-5,6,-8,16,6,5,-20
1622149418890950,-19,-5,-11,7,17,6,-18,10
1622149418890950,3,4,19,-4,-41,-13,15,-2
1622149418898014,3,-6,-4,-4,11,22,28,4
1622149418898014,2,-1,-10,-6,-19,-18,-44,10
1622149418913874,9,3,5,0,15,13,3,-10
1622149418913874,-6,-8,-15,-3,17,7,15,2
1622149418929572,1,5,-6,-13,-34,-19,-9,-15
1622149418929572,-3,2,1,2,14,3,11,11
1622149418936793,-7,-1,-7,-3,-17,8,-9,-12
1622149418936793,1,0,6,5,-2,7,7,-1
1622149418937780,3,-5,-15,-7,-6,-7,-18,10
1622149418937780,-4,4,12,-5,8,-10,3,-3
1622149418950843,3,0,16,8,6,12,23,11
1622149418950843,0,1,-7,-7,-2,5,4,9
1622149418958968,-5,-6,-20,-12,0,-2,-5,-17
1622149418958968,-7,6,14,1,14,18,3,7
1622149418973819,2,-1,-4,-4,-3,-14,-23,-3
1622149418973819,-5,-7,-3,-4,-4,-15,-12,-12
1622149418980821,-2,4,14,16,10,9,-5,-4
1622149418980821,-5,-1,6,12,9,-20,20,13
1622149418996980,9,-2,-3,-7,-15,18,-3,-5
1622149418996980,-4,5,-13,-20,5,-16,-8,4
1622149418997876,-1,-4,1,-1,-1,5,19,-4
1622149418997876,13,-1,1,26,-6,-6,-3,8
1622149419011468,-7,-1,0,-5,-6,-3,7,0
1622149419011468,0,-9,-15,-2,-2,-1,-26,-8
1622149419019337,17,8,7,-18,-3,-2,-1,3
1622149419019337,-29,-3,-1,9,-5,13,11,-9
1622149419033016,13,-16,-6,-4,11,-19,-45,-6
1622149419033016,-9,7,-8,0,-2,0,31,-3
1622149419041394,-5,15,10,5,-9,5,10,-4
1622149419041394,3,-6,-17,-18,-2,-6,0,-10
1622149419057009,-6,-8,-5,-12,-24,-17,12,6
1622149419057009,-7,-4,17,16,-15,15,-42,-19
1622149419057009,1,-1,-3,-11,4,-19,21,23
1622149419057009,7,6,21,32,2,2,5,16
1622149419072330,-11,3,-11,-12,11,-10,6,-2
1622149419072330,8,-4,-4,1,3,2,-13,-32
1622149419086850,-10,-14,-3,0,6,3,-12,-10
1622149419086850,4,13,-10,-28,-27,-5,10,5
1622149419093858,-8,-3,-8,19,15,12,7,-3
1622149419093858,23,3,8,-10,2,-22,2,15
1622149419108811,10,-9,-14,-2,-10,4,-24,-10
1622149419108811,-18,-7,-4,-23,-13,-11,-5,-9
1622149419116766,1,1,6,18,12,26,7,-8
1622149419116766,-4,-6,-6,-5,-1,-15,-17,6
1622149419117765,-4,1,-9,-1,3,4,11,-3
1622149419117765,9,-6,8,7,12,13,-29,-4
1622149419130907,-10,4,3,-16,-16,-16,10,-4
1622149419130907,1,-3,-6,-3,21,-6,53,23
1622149419147071,0,-6,-3,0,-11,19,-6,1
1622149419147071,-2,13,5,12,-16,-9,11,15
1622149419153903,-5,-20,-11,-6,5,10,-8,-13
1622149419153903,-23,31,25,12,-16,2,-9,-4
1622149419160885,22,-1,-6,-4,4,-21,-1,17
1622149419160885,18,-5,-14,-18,-26,1,-2,-24
1622149419191885,-31,-4,21,6,7,-7,-3,2
1622149419191885,2,-12,-7,-5,-8,16,35,-6
1622149419209091,-24,-2,0,13,10,-24,-55,-5
1622149419209091,6,2,0,3,8,17,13,3
1622149419210778,17,10,-7,-10,6,-4,-5,4
1622149419210778,1,-5,2,6,6,10,-32,-12
1622149419210778,-4,2,-5,-25,-32,-21,25,-9
1622149419210778,-1,-10,0,29,23,28,14,1
1622149419214899,3,5,3,-8,-10,-27,10,-1
1622149419214899,-1,3,1,7,30,-8,-28,6
1622149419229684,0,-5,-7,1,-30,21,12,0
1622149419229684,-11,-8,-6,-19,-5,-22,-10,-8
1622149419236809,5,8,0,-3,-1,5,-6,-4
1622149419236809,-9,3,-11,4,-11,-14,-7,-11
1622149419237807,-2,12,10,-2,6,-2,-1,-3
1622149419237807,-6,-16,-8,-5,-3,6,-11,10
1622149419252790,-4,8,9,11,2,11,0,7
1622149419252790,11,-3,-4,-7,8,0,23,-8
1622149419267080,-21,-9,-7,-4,10,7,0,-8
1622149419267080,-29,-2,11,-7,-12,-6,-16,-12
1622149419273900,13,20,-5,-3,-14,2,-19,-3
1622149419273900,1,-11,-7,-10,0,22,-26,7
1622149419280962,7,8,15,16,12,-2,32,-3
1622149419280962,2,-1,7,16,-13,8,3,2
1622149419296784,16,-9,-8,-20,1,-11,-3,-3
1622149419296784,-10,-3,-7,9,0,-13,-32,0
1622149419297757,5,2,7,0,-8,18,27,3
1622149419297757,3,-3,-17,-11,-20,-6,-13,2
1622149419320694,-5,-5,-2,-15,11,-6,4,-2
1622149419320694,1,-1,-1,23,-6,4,10,5
1622149419321693,1,-3,2,1,9,5,-18,4
1622149419321693,-2,-7,-14,-25,15,-4,20,-32
1622149419333688,-6,13,10,36,-8,-8,-6,6
1622149419333688,0,-14,-1,-16,-28,-10,13,4
1622149419340666,-5,1,-2,1,4,-14,-48,-8
1622149419340666,16,22,-1,-15,9,-1,15,-7
1622149419356622,-18,-10,-13,4,22,-4,4,14
1622149419356622,-12,-6,-6,-6,-10,15,0,2
1622149419357596,3,-3,-1,5,-9,-3,4,14
1622149419357596,3,6,-15,-5,1,-20,-17,-18
1622149419372555,8,-9,11,7,8,14,19,-4
1622149419372555,0,3,2,0,-6,-1,-16,-3
1622149419378564,-6,-9,-5,-15,-1,-26,10,3
1622149419378564,-10,6,7,12,7,16,-5,15
1622149419393500,1,-2,-5,1,-12,9,7,18
1622149419393500,-19,1,-9,-12,-3,-26,2,-36
1622149419400481,34,4,7,8,-7,3,-16,-5
1622149419400481,0,-16,1,-2,-4,-1,23,13
1622149419416438,4,6,-19,-11,0,-37,-43,-6
1622149419416438,-14,17,20,3,11,8,7,11
1622149419417436,-9,-5,-12,-11,-11,12,18,-1
1622149419417436,5,-6,-1,1,-1,2,-8,2
1622149419439376,-3,-3,2,1,-12,9,24,-10
1622149419439376,15,-10,-15,-8,28,-15,-30,0
1622149419439376,-5,3,13,12,-14,17,10,2
1622149419439376,4,0,-1,-6,-12,-6,21,-8
1622149419453364,17,-7,-16,-14,29,15,0,23
1622149419453364,-7,1,3,7,-16,-7,8,-2
1622149419461343,-7,-3,-3,-6,12,9,-17,-8
1622149419461343,5,4,6,11,0,-12,39,11
1622149419478274,-9,1,3,-7,-8,10,-33,-10
1622149419478274,21,-11,-18,-10,5,-12,11,16
1622149419479295,-1,11,17,13,-11,-10,1,-12
1622149419479295,-15,-2,-3,-9,29,2,-7,6
1622149419492235,-12,-10,1,8,-33,-12,-13,-13
1622149419492235,-1,-5,-6,-9,1,8,15,10
1622149419506222,-3,-11,-16,-18,-28,-8,-18,-6
1622149419506222,8,26,16,23,16,-6,-1,1
1622149419513411,-1,-3,2,-6,-17,-19,-3,-7
1622149419513411,-3,-4,0,-6,-3,18,-16,0
1622149419521347,12,-4,-6,15,16,-2,33,8
1622149419521347,-10,-17,-8,-13,-2,-6,-8,1
1622149419536864,-2,-4,6,-4,-10,9,8,-6
1622149419536864,0,1,2,-1,16,8,-6,20
1622149419537843,-1,3,-4,-9,-5,7,-23,-13
1622149419537843,-1,-7,-13,12,-3,-1,-12,10
1622149419552805,16,6,23,3,-12,5,11,-11
1622149419552805,-21,-6,-6,14,12,11,14,-37
1622149419558814,-7,3,-2,-9,-18,-4,-4,1
1622149419558814,-5,-22,-5,-3,17,-13,-5,1
1622149419573830,4,11,1,-10,1,3,-2,-11
1622149419573830,-3,4,12,18,-7,-11,11,0
1622149419580893,2,-8,-16,-12,2,-15,8,8
1622149419580893,-5,2,25,13,-6,10,-14,-12
1622149419597834,-3,-2,-10,14,10,8,38,5
1622149419597834,6,-2,1,-8,-3,-29,-45,1
1622149419603882,-12,-2,-13,8,21,4,3,-2
1622149419603882,-3,-2,7,-3,-42,2,-14,-9
1622149419612839,5,-13,-4,-17,4,11,-6,6
1622149419612839,-2,14,-5,8,-11,6,47,2
1622149419618934,19,-1,0,5,40,-14,-21,3
1622149419618934,-10,0,-4,-3,-21,28,2,-22
1622149419634863,-11,-3,-2,-6,-9,-46,-10,-1
1622149419634863,15,-4,-13,-17,11,4,10,8
1622149419640845,10,1,12,13,-9,0,-15,-3
1622149419640845,10,5,0,-1,-7,1,12,17
1622149419663902,-9,-5,-6,-11,18,13,-16,-24
1622149419663902,13,4,19,34,5,2,-2,2
1622149419664902,-12,-2,-4,-12,-14,15,20,1
1622149419664902,6,-11,-7,-7,14,-17,-17,14
1622149419672774,-1,8,1,1,-5,2,4,-1
1622149419672774,2,3,14,17,11,1,9,2
1622149419678932,4,-2,-11,-22,-7,22,-1,-5
1622149419678932,-12,1,-1,11,-14,-16,-11,-1
1622149419693921,1,-2,-3,-3,3,-3,17,-8
1622149419693921,7,2,-3,-10,-8,9,-2,7
1622149419700847,-16,-3,-2,-8,20,6,1,1
1622149419700847,13,-8,-18,-31,-30,-25,-16,-1
1622149419715775,6,0,26,47,12,-1,13,9
1622149419715775,1,7,-4,-9,-10,16,-1,4
1622149419723554,1,-8,15,1,3,10,12,-5
1622149419723554,-1,15,-1,-3,11,-28,-2,19
1622149419738842,3,-6,-17,-14,-15,-1,-20,-6
1622149419738842,-1,-5,-4,-15,-12,-2,7,9
1622149419739814,-6,-4,-1,9,-2,-16,-25,14
1622149419739814,-2,-6,-5,0,22,23,25,-15
1622149419753807,-10,2,-15,-23,2,20,7,4
1622149419753807,-9,-6,1,5,1,-34,-8,0
1622149419760793,-13,-3,-17,-23,-46,-14,10,-2
1622149419760793,17,3,28,20,26,-5,-26,0
1622149419776462,-21,-5,-16,-13,-22,0,1,-2
1622149419776462,-1,-3,3,-4,-4,18,-9,-7
1622149419784038,-15,0,-1,1,14,-8,-10,-3
1622149419784038,15,2,-10,-1,-12,5,22,-3
1622149419799022,3,1,0,-8,4,0,4,5
1622149419799022,2,0,-4,-19,-7,4,-23,-9
1622149419799993,-2,6,5,45,25,-3,1,1
1622149419799993,-13,0,6,-10,-1,7,0,-14
1622149419813895,17,2,10,12,24,-3,-15,15
1622149419813895,-2,-6,-12,-9,-18,12,30,1
1622149419821438,-6,-2,8,11,8,-10,-13,-9
1622149419821438,-5,1,-14,-22,9,12,-1,4
1622149419836484,-5,-3,1,10,-55,-2,-8,-6
1622149419836484,-10,-1,1,6,11,-13,36,25
1622149419843495,-1,-2,-1,-4,-5,16,-18,-29
1622149419843495,3,-25,-5,3,7,-12,-4,26
1622149419859453,-11,7,7,12,14,-10,9,-5
1622149419859453,15,-3,0,-9,-4,0,6,7
1622149419859453,-3,5,-7,-16,-37,-8,1,-4
1622149419859453,-19,-7,-18,-9,10,9,-12,-14
1622149419873869,18,1,18,14,8,-5,5,9
1622149419873869,-7,-1,-6,1,3,4,-12,-13
1622149419881377,11,-4,2,-7,9,-1,6,4
1622149419881377,-2,5,-12,-6,-9,3,-3,-9
1622149419895614,-10,-7,-6,1,-7,-7,-1,-4
1622149419895614,-2,-6,-5,-19,11,4,-26,-9
1622149419903592,-3,18,31,43,-3,6,27,5
1622149419903592,7,-1,-3,5,3,-5,5,13
1622149419919306,5,-6,-5,-3,-17,3,-2,-1
1622149419919306,-23,-4,4,-11,17,29,22,19
1622149419920207,1,-5,-21,-31,1,-34,-32,-12
1622149419920207,8,6,15,16,-14,1,6,1
1622149419933990,-11,-8,-3,3,17,-7,9,1
1622149419933990,9,-12,-10,1,10,6,-34,-1
1622149419941134,4,15,2,-7,-34,6,18,6
1622149419941134,-9,-5,13,-2,4,0,1,-4
1622149419955890,-17,-1,-18,4,16,4,-3,-3
1622149419955890,19,4,1,-1,-47,-17,-3,-7
1622149419963887,-5,-9,-11,-2,27,29,12,-1
1622149419963887,4,3,-3,-11,-5,-22,-21,-6
1622149419978895,-2,6,-2,-6,8,12,17,7
1622149419978895,-5,7,-7,1,17,-12,-13,-33
1622149419979868,27,-12,14,6,1,-12,-4,2
1622149419979868,-20,6,3,23,-34,7,5,-1
1622149419993857,23,-3,-5,-8,21,18,-13,3
1622149419993857,-14,-5,-9,10,-3,-6,15,0
1622149420000813,1,-5,-1,-12,-5,1,14,6
1622149420000813,3,1,-8,-20,11,8,6,-8
1622149420016048,6,-1,7,26,-6,-18,-26,5
1622149420016048,1,0,0,10,-17,-23,0,-4
1622149420023866,-5,5,-2,9,9,18,-2,-5
1622149420023866,-16,0,0,-13,1,-9,-5,0
1622149420038842,10,-1,10,-6,0,15,21,4
1622149420038842,1,6,6,-12,2,-20,-32,-2
1622149420039837,7,2,7,31,9,-10,6,21
1622149420039837,-7,-4,-2,2,-20,-6,-9,-10
1622149420053790,-18,0,-13,-9,20,2,5,-9
1622149420053790,13,-10,0,-8,-17,4,-14,0
1622149420060933,-22,0,7,-13,-12,-22,-9,-4
1622149420060933,27,8,1,23,35,11,12,7
1622149420075947,-11,-8,-11,-20,-32,-6,-30,-20
1622149420075947,1,0,8,-6,0,0,-14,1
1622149420083961,-17,-13,-11,-6,18,4,2,5
1622149420083961,10,-1,0,-17,-38,5,12,-1
1622149420098962,0,3,-1,12,11,-15,-2,-6
1622149420098962,-14,-7,-3,8,8,6,12,-3
1622149420099934,10,2,-13,-31,5,-3,-36,-5
1622149420099934,0,-4,10,20,8,9,50,32
1622149420113879,20,5,0,-13,3,-11,-54,-25
1622149420113879,-32,-5,2,1,-17,9,28,-6
1622149420121091,30,5,-1,17,2,21,19,6
1622149420121091,-20,-5,-21,-23,-15,-20,-9,-3
1622149420135815,10,6,38,42,19,8,15,14
1622149420135815,15,8,4,3,8,1,-4,0
1622149420143797,-16,-8,-13,-20,-18,6,14,-4
1622149420143797,1,-6,-5,1,4,4,-13,-10
1622149420158758,-13,-4,-14,-1,-4,-3,-17,3
1622149420158758,10,14,11,6,12,-8,8,-6
1622149420159730,-9,-10,-5,0,-23,4,7,2
1622149420159730,-7,11,-3,-3,-2,-2,-12,-1
1622149420173883,4,15,12,-5,4,7,33,-5
1622149420173883,-4,7,-8,-2,3,-10,-10,23
1622149420180901,13,1,9,6,13,-1,0,-14
1622149420180901,-26,-8,-3,-6,-12,-3,-17,-1
1622149420196513,0,-4,2,-3,-18,-2,9,2
1622149420196513,13,-2,10,1,29,30,13,16
1622149420203598,-2,1,0,-7,-23,-43,-41,-14
1622149420203598,3,-4,5,12,6,14,11,-24
1622149420219269,-7,3,-19,-21,10,-7,4,1
1622149420219269,2,-12,-10,-8,-19,6,29,2
1622149420220162,-3,18,14,20,29,-6,-56,5
1622149420220162,-4,-8,-9,-23,-23,-2,20,-4
1622149420241797,-17,-11,-4,-2,-5,-3,12,7
1622149420241797,4,6,8,11,4,-12,-27,-14
1622149420242772,-3,-8,-14,-17,2,13,22,-10
1622149420242772,14,2,4,10,12,-10,-26,2
1622149420255761,-23,-1,-3,-18,-24,3,8,6
1622149420255761,7,-5,3,3,4,-2,9,-5
1622149420263734,-4,-2,2,13,9,-6,11,0
1622149420263734,2,3,11,14,6,12,-20,3
1622149420279780,1,-6,-5,-2,-4,2,3,0
1622149420279780,4,-3,-10,-22,-1,2,8,-12
1622149420279780,-18,-1,-10,-7,13,-20,-9,-2
1622149420279780,15,-8,5,-3,-41,2,-3,-5
1622149420293779,12,18,4,21,21,-1,27,23
1622149420293779,-9,-19,-12,-4,6,7,-40,-44
1622149420300756,1,3,-8,-3,8,0,18,-16
1622149420300756,1,18,2,-1,20,3,-31,18
1622149420315690,14,-11,-3,-20,-9,-3,31,0
1622149420315690,-5,-6,-4,16,-9,-9,-19,-7
1622149420323869,1,3,-2,5,-2,18,5,5
1622149420323869,-6,-6,8,-6,14,-6,19,-11
1622149420339693,8,-7,-4,3,-27,-2,-18,-1
1622149420339693,-20,13,0,13,4,-19,-18,-1
1622149420339808,6,-4,16,-12,0,13,-17,-2
1622149420339808,4,-3,-12,7,22,0,23,6
1622149420353799,-3,-1,-16,-34,-33,-11,0,3
1622149420353799,2,7,16,16,8,32,8,-16
1622149420361477,-17,-5,-4,-4,-8,-25,-19,12
1622149420361477,19,-6,4,-13,0,1,-9,-1
1622149420376501,0,19,-15,-12,-9,5,9,-5
1622149420376501,-1,-8,6,-6,-18,-7,29,22
1622149420384006,3,8,4,4,20,12,-51,-9
1622149420384006,-4,2,11,38,-16,-25,54,4
1622149420398898,7,-8,-1,-8,17,-7,-15,-6
1622149420398898,-23,-9,-14,-19,2,2,-9,-14
1622149420399870,-4,9,12,10,-28,4,62,41
1622149420399870,-6,-8,-11,-10,0,7,-70,-19
1622149420413879,2,-2,1,-3,-7,-4,-1,-10
1622149420413879,9,2,6,13,-8,-6,13,8
1622149420429636,-8,-13,-7,-9,14,-8,-5,-13
1622149420429636,4,7,-18,-14,-7,4,-3,-4
1622149420435802,-11,-13,2,7,21,4,-1,-1
1622149420435802,16,9,18,5,0,16,-9,10
1622149420443753,6,-1,-1,5,-7,5,9,-6
1622149420443753,-6,-5,-1,8,9,-7,1,8
1622149420458710,-18,-6,-5,-5,11,0,-23,-9
1622149420458710,24,-3,-17,-17,-10,2,17,6
1622149420459707,-18,-13,-4,-20,-12,-2,25,4
1622149420459707,-4,1,10,27,11,-5,-29,-37
1622149420473974,14,7,9,16,0,12,-2,2
1622149420473974,-16,-4,-18,-14,-10,-13,-6,3
1622149420480866,14,1,3,5,-11,-1,-9,-10
1622149420480866,-20,1,-3,-28,-8,21,47,16
1622149420496514,-2,-8,-3,8,-12,-22,-60,-4
1622149420496514,-1,0,11,23,-15,12,49,0
1622149420503686,10,-11,-24,-26,4,-13,-44,4
1622149420503686,-18,6,-19,-15,18,1,30,6
1622149420518868,-1,17,33,24,-5,13,3,3
1622149420518868,-2,-1,-3,-8,-17,-21,-2,10
1622149420527201,-8,-1,1,4,-17,11,-1,-8
1622149420527201,12,-8,4,-3,11,4,4,5
1622149420533984,-6,-4,16,8,26,-3,-6,-7
1622149420533984,-5,6,-6,-1,-31,0,5,-7
1622149420541518,7,-3,0,8,14,-1,6,13
1622149420541518,0,0,1,-6,-3,0,2,-8
1622149420556556,0,-19,-18,-15,4,8,-11,-9
1622149420556556,-15,14,0,3,-5,-22,-8,3
1622149420563545,12,-5,-3,-6,-4,10,1,-3
1622149420563545,0,-6,-4,2,9,3,-19,3
1622149420587195,-12,-5,-12,-8,-10,-13,34,-2
1622149420587195,11,-3,12,9,11,-2,-23,3
1622149420587195,-6,-1,-13,-15,-12,-6,12,-3
1622149420587195,-9,2,24,22,-2,19,1,5
1622149420602168,23,2,-14,-23,-12,2,11,-2
1622149420602168,-20,-11,-3,8,14,-8,-20,8
1622149420602325,-39,6,9,14,18,-11,0,-3
1622149420602325,41,-5,-5,-7,-22,-1,5,-10
1622149420616274,-4,-6,6,4,2,6,-6,-8
1622149420616274,15,10,-8,-11,20,-1,-14,7
1622149420623816,-12,4,-1,-12,-27,14,20,-6
1622149420623816,2,-6,-1,18,6,-19,10,28
1622149420639779,-4,-4,-7,-8,11,-7,-27,-8
1622149420639779,-5,2,0,-13,-1,20,13,-1
1622149420645784,8,-5,7,26,11,-3,7,-4
1622149420645784,-4,-1,-20,-36,-8,-1,-20,-11
1622149420654734,4,7,53,43,5,21,21,6
1622149420654734,-7,-8,-4,14,5,-17,-20,-8
1622149420661518,22,7,3,7,-12,12,4,1
1622149420661518,7,-1,-8,-12,-14,-21,-18,-5
1622149420676555,-15,-1,-16,-10,26,11,-3,6
1622149420676555,5,-4,-4,-10,-10,2,1,-4
1622149420684024,9,-2,4,3,4,16,13,-4
1622149420684024,-7,-10,-5,-3,21,0,-25,-4
1622149420698902,8,30,3,8,-3,-13,9,9
1622149420698902,0,-11,-10,-11,0,7,-5,-13
1622149420706537,7,-13,-4,-6,-26,-8,11,6
1622149420706537,-38,31,32,26,20,17,-18,-9
1622149420722091,-4,-19,-27,-15,2,7,-25,5
1622149420722091,2,7,15,5,-18,7,16,-1
1622149420722331,-1,7,-4,-6,20,-12,-18,19
1622149420722331,0,-10,-7,-6,-8,-5,8,-8
1622149420737789,-5,-2,-11,-17,2,-6,-9,-27
1622149420737789,11,0,-1,4,-3,-3,12,2
1622149420743773,-18,-14,-15,-11,7,3,-1,-5
1622149420743773,1,12,11,2,8,-2,10,22
1622149420758753,0,-6,-10,-8,-16,-13,-2,13
1622149420758753,10,-13,-3,-17,-16,-7,-6,-22
1622149420765711,15,4,18,42,43,-1,10,-13
1622149420765711,-10,10,-14,-10,-28,5,26,-2
1622149420781875,-3,-12,0,10,8,7,-14,0
1622149420781875,-7,-3,-6,-12,15,-7,5,8
1622149420782873,-6,7,-9,-3,-17,8,27,-10
1622149420782873,14,-10,6,13,21,-18,-20,-3
1622149420795898,-7,-8,-6,-16,-43,-17,-15,0
1622149420795898,4,2,11,9,19,3,-5,10
1622149420803279,-8,-5,-18,-21,-9,-3,4,-38
1622149420803279,0,1,-7,6,-10,4,14,8
1622149420819020,-1,2,14,4,8,-2,39,2
1622149420819020,10,-11,-9,1,12,-14,-29,4
1622149420826494,1,14,-3,2,-28,-19,-37,2
1622149420826494,-15,-14,4,-11,10,27,15,4
1622149420841318,8,16,-1,10,-16,6,23,-17
1622149420841318,-10,6,7,9,25,1,-16,16
1622149420842319,-1,-14,1,-7,10,-20,-13,23
1622149420842319,30,7,-4,-19,-27,-3,-12,-7
1622149420863882,-31,-1,-10,9,-17,8,15,5
1622149420863882,-4,-5,-10,-7,0,-10,14,-14
1622149420864881,8,-5,0,-13,5,10,-12,0
1622149420864881,-3,-7,-6,30,9,-15,5,-6
1622149420878941,11,-5,2,-19,16,-1,-6,1
1622149420878941,-3,0,-15,-14,-20,1,8,3
1622149420885772,-3,-1,15,12,-12,-9,-25,-14
1622149420885772,-1,-3,-14,-26,-4,-11,6,11
1622149420901768,4,-2,3,29,12,4,5,-27
1622149420901768,-6,-3,1,4,-9,9,-21,-4
1622149420902727,-13,9,-1,-15,6,11,-3,15
1622149420902727,2,-4,-1,0,-26,-18,-32,-27
1622149420915692,-14,-7,3,-1,51,0,-24,13
1622149420915692,13,-8,-6,-6,-35,20,42,-2
1622149420923909,8,27,20,11,29,-2,9,-5
1622149420923909,-24,-7,-14,-19,-21,-9,-28,5
1622149420938916,2,-2,15,-8,-19,-7,25,25
1622149420938916,0,5,4,32,-9,-2,-9,-9
1622149420946562,-1,-7,-4,8,6,-6,14,7
1622149420946562,2,-8,-5,-17,9,17,-15,-5
1622149420962141,4,4,-2,4,-9,-21,-11,-6
1622149420962141,-13,-3,-4,-19,-4,8,17,6
1622149420962141,-3,-13,-9,-1,16,-2,3,12
1622149420962141,20,13,14,-1,-9,10,21,-36
1622149420984870,3,-15,-11,-11,-16,-1,-24,0
1622149420984870,-7,7,15,4,8,-31,-31,-18
1622149420985893,-10,-1,-3,-12,-11,14,3,4
1622149420985893,2,-9,-2,5,11,-4,20,14
1622149420998936,6,3,-17,-15,-7,-11,-10,-16
1622149420998936,23,0,9,4,24,16,8,-1
1622149421006532,-53,-5,-1,-3,-19,11,-12,-11
1622149421006532,0,-7,-4,17,-20,-30,20,-3
1622149421022170,9,7,-5,-5,-6,3,4,11
1622149421022170,-6,0,-3,1,35,5,-9,3
1622149421022974,11,-4,-11,-14,-24,6,21,-28
1622149421022974,0,-4,5,3,2,10,-17,17
1622149421035817,-5,-3,11,12,2,2,8,5
1622149421035817,0,11,-1,-5,16,0,22,-3
1622149421043926,16,-2,0,-5,-1,-16,-31,-1
1622149421043926,-1,-15,-4,11,4,8,-8,-15
1622149421059018,-9,22,16,4,0,4,12,0
1622149421059018,-4,-10,-4,10,-4,-18,-8,5
1622149421066195,11,3,-8,4,3,-12,-7,2
1622149421066195,-2,0,27,17,20,12,8,6
1622149421081858,2,-6,-13,1,-29,-6,-13,-10
1622149421081858,11,-14,-13,-18,11,11,9,-1
1622149421082855,-22,6,12,10,-10,3,4,10
1622149421082855,0,6,-10,-5,-9,-16,-29,1
1622149421096564,-3,-5,-5,-8,0,23,25,4
1622149421096564,-1,-3,1,-5,5,-12,-25,8
1622149421103951,35,-6,-9,-3,5,7,-12,-6
1622149421103951,-16,13,-13,-21,2,-11,48,-12
1622149421118939,2,0,5,-5,1,-18,5,17
1622149421118939,-8,-3,-1,-12,-19,0,-17,-1
1622149421126442,6,-4,0,24,-5,-2,10,21
1622149421126442,-5,-3,-10,-25,8,8,-24,-35
1622149421141765,6,-1,9,52,4,-14,-22,-2
1622149421141765,-14,2,-1,-24,-24,8,29,5
1622149421142738,5,3,0,8,6,6,0,10
1622149421142738,0,3,1,3,6,-3,6,12
1622149421155794,3,-13,-12,-11,-16,-5,1,4
1622149421155794,-9,4,-8,-27,-16,8,-29,-20
1622149421163882,15,3,12,10,11,-4,21,-12
1622149421163882,-20,2,8,14,13,12,0,13
1622149421178917,-13,-8,-11,-21,-11,22,0,-13
1622149421178917,8,-5,3,21,6,-51,6,1
1622149421185770,4,0,-17,-27,-11,-2,-17,10
1622149421185770,13,-7,-3,16,17,8,-11,10
1622149421202206,-5,-1,-3,-9,-32,-11,-13,-23
1622149421202206,-8,-1,-4,-7,4,20,36,19
1622149421202206,-7,-12,-2,-6,3,-11,-3,-1
1622149421202206,4,4,7,3,14,3,11,6
1622149421215885,-23,-12,-16,-20,11,5,-16,-14
1622149421215885,5,8,-4,4,2,-8,-20,2
1622149421224015,-11,12,17,19,-27,-24,1,2
1622149421224015,2,-2,-7,-2,-9,-8,-25,-18
1622149421238995,31,6,7,-9,4,6,0,7
1622149421238995,-26,-12,-9,17,-6,8,33,2
1622149421246356,3,11,-3,-23,12,6,-24,-31
1622149421246356,-6,1,5,6,-19,-31,-7,6
1622149421262168,7,-1,2,9,8,-11,-22,5
1622149421262168,0,1,2,-1,13,17,-2,-9
1622149421262328,0,-6,-15,-3,14,8,21,-3
1622149421262328,1,4,15,6,-8,-3,4,-1
1622149421275701,2,-7,-5,-2,24,18,18,11
1622149421275701,10,2,6,3,-17,-39,-42,-44
1622149421284019,-28,-2,-7,-2,0,26,2,1
1622149421284019,40,-12,-11,-17,21,7,13,9
1622149421298977,-43,11,-6,8,-2,-12,4,-2
1622149421298977,0,-3,7,5,-12,8,5,28
1622149421305961,10,6,3,1,5,7,12,10
1622149421305961,-6,-12,-8,-6,-9,8,-12,-14
1622149421321321,3,-2,1,-18,22,-2,11,-2
1622149421321321,13,13,5,22,-4,-8,-11,-1
1622149421322320,2,-15,-4,2,5,13,10,-6
1622149421322320,-23,5,1,-18,-6,10,6,16
1622149421336568,7,-1,-3,-11,1,-23,19,0
1622149421336568,-12,3,-14,16,7,19,-26,-8
1622149421343657,15,-3,24,3,-12,-13,-8,-3
1622149421343657,3,-7,-11,1,-8,-6,24,2
1622149421359027,-6,16,1,-11,-2,-1,-32,-5
1622149421359027,7,2,-4,-18,-11,-14,6,1
1622149421366414,0,-4,-7,10,31,7,0,1
1622149421366414,13,-7,-6,5,-34,-17,-19,-26
1622149421381887,-13,12,10,5,0,4,12,-10
1622149421381887,-6,-9,-8,2,41,21,12,6
1622149421382885,0,0,-9,-13,-23,-22,-26,-4
1622149421382885,-7,-1,0,-2,14,-5,-24,17
1622149421396536,5,-1,6,21,-13,8,27,8
1622149421396536,37,1,-9,1,-12,6,-1,-11
1622149421403910,-27,-10,8,8,2,-2,11,4
1622149421403910,8,4,-8,-27,-1,3,16,4
1622149421418878,0,-2,14,5,1,-27,8,-6
1622149421418878,-14,-3,-8,-10,26,-5,-17,14
1622149421426561,-3,-7,-5,-11,-56,-23,-15,-15
1622149421426561,8,3,-9,17,16,-2,-12,6
1622149421441284,-20,5,1,-9,-21,11,29,0
1622149421441284,-10,-1,13,2,24,-20,-14,-8
1622149421442284,13,5,-9,-7,-8,-7,-5,29
1622149421442284,-13,0,-2,-2,-20,-5,-23,-33
1622149421456569,17,-8,-14,-11,29,28,23,20
1622149421456569,-5,-14,2,-6,-44,-2,22,1
1622149421463872,3,38,8,3,5,17,-8,7
1622149421463872,-5,1,16,3,9,12,45,8
1622149421479043,3,-5,1,0,-23,-48,-71,12
1622149421479043,10,0,-9,-3,13,19,15,-20
1622149421486575,-22,-6,19,13,13,-6,16,0
1622149421486575,-2,3,-10,-15,-24,4,15,4
1622149421501502,4,-2,4,-4,20,35,-5,-4
1622149421501502,8,-9,6,2,-32,-38,-43,-17
1622149421509669,-20,-10,-7,-15,13,-4,8,5
1622149421509669,-3,-5,-3,4,2,0,0,2
1622149421516569,-5,-3,-3,3,0,17,15,28
1622149421516569,3,6,-15,-6,-31,-3,8,-19
1622149421524009,13,-10,10,5,7,2,7,-2
1622149421524009,-5,13,1,8,25,-7,-14,13
1622149421539013,2,-5,-9,-6,-15,7,-23,-16
1622149421539013,-1,4,0,-10,4,-2,18,15
1622149421545789,4,-6,-6,11,12,-3,7,-8
1622149421545789,-7,0,26,14,-4,21,14,15
1622149421561555,5,-2,-18,-18,-16,-12,-16,-26
1622149421561555,16,3,36,31,21,4,-5,11
1622149421569722,-15,-17,-17,-13,0,-6,-10,-5
1622149421569722,0,-1,-4,10,-9,5,9,4
1622149421575898,0,1,11,14,28,-7,-3,-18
1622149421575898,1,2,-10,-15,-24,16,-7,13
1622149421583966,9,-6,9,2,-4,-6,9,-7
1622149421583966,-2,16,-12,-12,4,13,-19,25
1622149421598873,8,-7,1,25,1,-19,2,-26
1622149421598873,-13,5,2,-6,11,6,21,14
1622149421605854,10,1,-10,-3,-9,-15,-21,-15
1622149421605854,-6,-3,10,-10,-4,0,-2,-6
1622149421629628,1,-6,-4,2,-5,3,-9,11
1622149421629628,0,-10,8,-2,-7,5,5,-17
1622149421630529,-2,4,-17,-9,-8,-13,1,1
1622149421630529,-2,-4,4,1,11,3,-12,-21
1622149421644750,4,0,-2,-5,8,-19,9,4
1622149421644750,-12,-5,-10,-17,-24,3,-22,4
1622149421644750,-1,1,-6,-12,1,9,5,-1
1622149421644750,5,-5,8,28,2,-9,0,1
1622149421658740,-12,-8,1,-12,-12,2,6,0
1622149421658740,-5,21,-11,-10,8,10,-4,2
1622149421666471,10,-2,15,5,3,4,22,18
1622149421666471,-1,-1,-9,-15,-4,4,-15,-26
1622149421680880,-3,-7,-8,29,8,-1,28,10
1622149421680880,-19,-9,-3,-2,-5,-3,-4,-12
1622149421697026,5,7,20,-1,3,-14,-32,16
1622149421697026,0,-11,-9,-7,2,-1,5,-1
1622149421704530,5,-5,-8,-25,-1,3,6,0
1622149421704530,-4,-6,2,47,-1,-9,16,8
1622149421705122,4,16,-11,-17,1,17,19,-18
1622149421705122,-8,-5,-4,-18,1,-23,-28,-2
1622149421719021,3,8,-3,-12,10,0,-28,5
1622149421719021,-4,1,3,21,25,9,21,10
1622149421726545,-14,-8,-13,-15,-32,1,1,-9
1622149421726545,15,-4,17,8,-6,-25,5,15
1622149421741006,-6,7,-17,-3,13,29,-1,-13
1622149421741006,-2,-10,3,-15,-5,-8,-1,-2
1622149421748872,4,7,18,41,25,-5,-18,-3
1622149421748872,-25,4,-11,-22,-14,1,6,-8
1622149421763836,5,-4,4,3,1,5,12,1
1622149421763836,1,-8,-3,-19,-5,2,0,-13
1622149421764836,-8,5,-22,-11,-13,-4,6,24
1622149421764836,-5,-2,6,8,-12,-15,7,-3
1622149421779058,2,-1,2,-17,-19,-17,-41,-7
1622149421779058,-12,1,-4,7,7,-4,-1,4
1622149421786544,8,-7,0,-12,-11,14,-19,-35
1622149421786544,-2,17,-3,13,29,-17,1,5
1622149421802329,-11,3,4,5,-12,5,30,0
1622149421802329,11,-2,-17,-20,-4,-2,-1,1
1622149421825857,-3,-10,-3,-1,10,2,15,4
1622149421825857,-10,3,2,12,-2,5,21,-1
1622149421826865,9,-6,-5,-11,-12,-7,-48,-11
1622149421826865,-5,7,12,9,13,-3,2,17
1622149421827862,1,-11,-6,2,3,8,14,0
1622149421827862,-9,-9,-8,-22,7,-9,5,-7
1622149421838853,6,6,-5,9,-1,14,34,18
1622149421838853,-13,-7,6,-12,6,-24,-20,0
1622149421845834,2,9,-5,16,-9,5,-5,0
1622149421845834,13,-8,-1,5,26,11,-1,0
1622149421860795,-13,-1,5,10,-20,5,9,-2
1622149421860795,9,0,-1,-21,-19,-1,-19,-17
1622149421869747,-1,-5,-5,-10,4,-8,-1,10
1622149421869747,2,-1,-9,0,0,14,-1,5
1622149421883708,4,-3,9,-1,19,-7,-16,-6
1622149421883708,-1,1,-1,6,-2,14,8,-2
1622149421885735,8,1,1,3,2,6,-30,2
1622149421885735,-1,-16,-11,5,-30,1,45,-8
1622149421898744,-2,24,26,27,17,-4,4,16
1622149421898744,10,-1,-5,-13,6,0,-3,5
1622149421905758,-9,-1,-5,-10,-20,-18,-15,-9
1622149421905758,24,-1,-3,2,-10,-11,-43,-9
1622149421939837,-7,-29,-22,-8,3,0,24,0
1622149421939837,-3,17,4,21,25,7,7,-5
1622149421940860,16,-1,-2,-22,-13,-2,0,-1
1622149421940860,-26,-8,15,26,6,-5,-13,-39
1622149421943852,0,-1,-3,-10,-32,-4,2,29
1622149421943852,5,3,9,-4,20,12,16,26
1622149421944853,3,-29,0,8,-12,0,29,-7
1622149421944853,-1,44,-2,1,-2,-6,-35,9
1622149421975419,6,1,-6,-12,-8,-7,-3,-6
1622149421975419,-7,-3,11,-3,-8,-10,-16,-9
1622149421976261,3,-4,2,6,7,2,17,1
1622149421976261,12,-6,4,10,-1,19,6,6
1622149421980874,-16,-1,6,4,9,-7,7,-12
1622149421980874,-4,-1,-18,-8,-14,-29,-32,-6
1622149421988966,3,3,2,2,-7,17,17,1
1622149421988966,10,-7,-11,-21,10,6,3,4
1622149422006275,5,0,3,3,10,-5,-8,-6
1622149422006275,-15,-6,-6,-19,-19,2,14,-9
1622149422006275,-9,-2,1,-12,28,-4,-18,-11
1622149422006275,1,4,3,12,6,-2,9,23
1622149422018480,12,-4,4,-25,-60,-7,-20,-53
1622149422018480,-22,-1,21,61,49,46,0,2
1622149422026608,-15,-13,-17,-29,-39,-35,-7,-3
1622149422026608,25,17,11,14,17,-27,-13,3
1622149422042356,-37,-9,-13,-13,13,0,-22,-15
1622149422042356,13,-5,-6,-1,-16,25,32,14
1622149422048368,-5,14,5,10,9,6,-19,-8
1622149422048368,-5,-15,-9,-31,-29,3,7,7
1622149422065326,7,1,18,21,16,-5,18,-1
1622149422065326,10,6,-4,-7,-18,-7,-6,-2
1622149422066293,-4,-2,-14,9,12,2,0,7
1622149422066293,-13,-14,19,10,31,3,-10,-11
1622149422079799,9,22,-8,-23,-51,-21,6,10
1622149422079799,0,-4,-10,1,7,-19,18,25
1622149422086582,1,4,2,3,8,8,-28,-10
1622149422086582,-2,-7,-8,-2,16,10,-20,-10
1622149422101577,-3,-12,6,25,-18,2,-5,7
1622149422101577,29,2,3,-8,-8,-3,-16,8
1622149422109069,-14,10,-4,-6,2,-14,55,-12
1622149422109069,-5,-18,-11,-14,-6,5,10,2
1622149422124751,7,8,14,28,26,11,-4,13
1622149422124751,-20,-8,-20,-21,-22,-19,-20,-22
1622149422124751,19,5,30,25,11,17,-10,17
1622149422124751,-12,-11,-16,-19,0,8,0,-26
1622149422138961,8,-3,-13,-19,-19,-9,15,36
1622149422138961,-3,-8,0,22,31,20,-15,-12
1622149422146563,5,13,3,24,-33,-42,-28,-10
1622149422146563,4,6,0,-36,-28,22,-6,11
1622149422161528,-4,0,-2,-2,27,8,22,26
1622149422161528,0,-4,-4,-2,-2,-30,-32,-76
1622149422168643,-7,-14,-4,-14,2,16,14,12
1622149422168643,-7,12,11,15,-6,11,25,11
1622149422184726,10,-6,-27,-16,11,-18,-14,-5
1622149422184726,-1,3,32,15,-3,-5,1,8
1622149422184726,31,-3,-1,6,3,6,19,-3
1622149422184726,-41,-10,-11,17,-4,-21,-16,-13
1622149422198785,-15,8,-1,-17,13,22,-4,-16
1622149422198785,2,1,-13,-7,0,-5,24,14
1622149422205878,-13,-8,4,0,-13,4,-18,-14
1622149422205878,7,13,-11,-25,2,-12,0,10
1622149422221546,3,-15,2,21,21,11,2,0
1622149422221546,-7,16,-6,-7,-9,1,-3,-2
1622149422229036,-4,2,3,-11,1,23,14,3
1622149422229036,4,-4,-1,20,3,-46,-26,-5
1622149422252887,0,-6,-4,-3,-2,0,26,-6
1622149422252887,-5,9,-5,-25,-29,-9,1,0
1622149422252887,-3,2,1,6,-4,2,12,9
1622149422252887,-7,-5,-15,-17,11,6,-12,1
1622149422259036,22,23,23,34,-4,-15,-1,-9
1622149422259036,-20,-12,-15,-15,11,29,14,12
1622149422266443,-13,2,-3,11,13,-31,-2,3
1622149422266443,19,-16,6,13,4,3,-2,4
1622149422281088,-16,-7,-9,-37,-8,5,-13,-11
1622149422281088,22,-3,0,14,5,1,8,4
1622149422289044,-15,3,-10,-14,6,13,-3,-5
1622149422289044,-8,3,12,19,-7,-29,-2,-4
1622149422304740,3,-5,3,4,4,-8,-34,-5
1622149422304740,-6,-1,6,11,-5,-7,-3,-18
1622149422304740,9,-10,-14,-24,-13,1,13,-11
1622149422304740,0,-4,-15,-16,-3,13,-30,-5
1622149422319885,2,1,42,26,7,24,48,11
1622149422319885,0,6,-7,-20,-2,-2,-8,12
1622149422326609,-2,-3,1,25,12,-8,-22,-5
1622149422326609,19,8,-5,-35,-24,13,23,5
1622149422341022,-18,-17,-14,12,26,-4,-18,10
1622149422341022,-13,3,-3,-10,-14,-20,-12,-6
1622149422348973,12,-7,8,-3,-21,4,-5,0
1622149422348973,28,4,9,16,4,29,48,17
1622149422371978,-13,-12,-19,-14,0,-21,-29,-9
1622149422371978,11,1,8,-8,-26,-16,13,7
1622149422379868,-14,13,10,17,34,4,-28,6
1622149422379868,-8,-11,-9,-12,-28,-7,9,-35
1622149422381866,5,13,4,7,28,18,-37,-30
1622149422381866,-5,-9,-15,1,-7,-45,-10,3
1622149422385880,8,-2,8,-2,2,19,39,28
1622149422385880,0,1,-3,3,-2,-14,-26,-5
1622149422401570,19,-4,-15,-14,-10,-4,10,9
1622149422401570,-23,-11,4,15,11,42,25,3
1622149422409071,-11,3,1,3,-7,-17,-31,-15
1622149422409071,5,6,14,12,-5,7,32,7
1622149422424037,-2,-6,-8,-1,20,-3,-1,6
1622149422424037,13,-13,-3,-16,-36,-2,7,-4
1622149422431852,-1,23,-13,-9,29,18,5,-31
1622149422431852,-19,-3,16,-3,6,-7,-24,-5
1622149422438858,-1,5,-4,8,-41,-2,-1,13
1622149422438858,0,-8,8,13,17,4,7,-9
1622149422446608,-13,-7,-7,-9,6,9,1,2
1622149422446608,22,2,14,6,-13,-6,-9,0
1622149422461524,3,0,-4,-16,-3,10,17,-1
1622149422461524,3,4,10,41,8,-8,-11,7
1622149422477255,-3,-4,-1,-23,0,-11,-14,-13
1622149422477255,-5,-5,-24,-19,-7,9,21,21
1622149422492886,23,2,27,21,4,-4,7,3
1622149422492886,-22,-2,-7,16,12,27,35,-3
1622149422492886,1,0,-4,-7,-8,-11,-44,-1
1622149422492886,-12,-1,-17,-30,16,-2,-1,-5
1622149422498811,-11,-3,-7,-7,-33,3,2,10
1622149422498811,7,-11,-15,-27,-1,-9,-21,-41
1622149422530803,8,14,9,34,6,7,19,5
1622149422530803,3,-12,3,6,-7,-7,-4,4
1622149422531799,-14,4,-33,-40,11,1,11,-1
1622149422531799,6,7,23,50,-2,-9,-19,6
1622149422532798,8,-17,-14,-32,-39,-3,-1,2
1622149422532798,-14,1,0,4,-23,-16,-1,9
1622149422543768,-7,-3,15,11,18,12,-3,-23
1622149422543768,11,6,-16,-15,21,-9,6,5
1622149422551744,-7,4,1,6,-10,11,29,6
1622149422551744,-2,5,3,10,15,18,15,7
1622149422559721,-2,-4,-13,-15,-42,-32,-36,-9
1622149422559721,-5,-2,15,-2,7,9,-4,-2
1622149422565707,9,-13,7,3,10,9,-34,8
1622149422565707,-14,0,-12,-14,-8,-17,34,-32
1622149422580830,5,-3,-4,24,29,12,13,-1
1622149422580830,-2,2,12,-17,-20,-10,-22,5
1622149422596784,8,-4,5,8,8,3,0,1
1622149422596784,-8,-6,-2,7,-6,-2,-19,-10
1622149422603966,-9,4,-17,-43,1,-17,-4,-3
1622149422603966,9,-2,7,33,8,7,4,11
1622149422619745,3,-15,-12,-8,-8,-6,13,7
1622149422619745,-9,23,18,-8,9,5,-18,-2
1622149422634944,-17,0,-8,-7,-34,-22,-12,-2
1622149422634944,31,-6,-14,-27,22,12,43,30
1622149422635861,-23,3,-9,-7,-20,-15,0,-21
1622149422635861,7,3,9,18,26,23,9,2
1622149422640872,26,1,13,7,-1,-9,-2,4
1622149422640872,-11,-6,-3,25,-16,-17,7,39
1622149422648988,-4,-2,4,-14,19,-2,7,-21
1622149422648988,9,-4,-11,-17,-21,-19,-17,-1
1622149422663788,-9,12,6,2,6,14,3,1
1622149422663788,2,-1,-2,-19,4,7,-8,-7
1622149422672161,5,-10,-1,16,0,-21,41,13
1622149422672161,-17,7,-3,22,25,9,-15,-1
1622149422702870,12,-5,1,-32,-13,-1,5,-2
1622149422702870,-6,11,16,27,0,-12,-32,-13
1622149422703843,-6,-5,-8,-17,6,-4,-14,-1
1622149422703843,5,-6,-3,-4,-22,-2,-10,2
1622149422705865,-6,-3,-1,26,24,-9,33,7
1622149422705865,-4,5,-11,-34,-23,-10,-23,-20
1622149422709046,0,-6,-4,0,12,-1,4,7
1622149422709046,-7,5,4,10,-17,-5,25,13
1622149422724067,48,-1,-12,-10,20,19,-12,1
1622149422724067,-39,-6,-9,-23,-1,19,12,29
1622149422731860,-5,0,-18,11,-1,-16,-20,-25
1622149422731860,10,-7,29,18,7,37,34,15
1622149422746537,-11,1,-5,-10,5,-19,-55,-2
1622149422746537,15,6,2,9,-14,6,19,-5
1622149422747431,2,14,-17,-22,-11,2,9,1
1622149422747431,-2,-8,2,21,-1,1,1,-3
1622149422761597,-14,-2,5,1,-5,-23,15,-6
1622149422761597,2,-7,3,1,16,22,-48,-17
1622149422769022,6,-1,-2,-12,-31,0,4,3
1622149422769022,11,-1,-6,9,21,-14,-6,-1
1622149422784031,-9,-6,7,9,-18,-6,5,18
1622149422784031,0,4,-22,-29,-12,3,13,-20
1622149422791927,-4,0,44,22,6,-23,-12,12
1622149422791927,-8,-6,-14,-18,-5,27,12,-8
1622149422807731,4,3,3,19,11,-1,-35,4
1622149422807731,-6,-6,-13,-14,6,-12,17,7
1622149422807731,4,1,-4,-7,3,12,-20,-4
1622149422807731,0,-12,6,-13,-9,-13,3,6
1622149422821437,-10,17,10,30,11,3,5,-14
1622149422821437,0,5,1,4,0,35,19,2
1622149422829031,0,1,0,-1,-4,-16,-17,-2
1622149422829031,3,-15,-26,-29,-3,-6,-9,7
1622149422843853,-3,3,15,45,8,5,8,-2
1622149422843853,5,-11,-2,-16,-10,-9,-9,-15
1622149422851944,-10,3,0,13,-8,8,18,13
1622149422851944,-6,5,-10,-13,-3,-23,-4,-6
1622149422866902,-2,-11,-10,-7,-11,-16,0,-6
1622149422866902,12,5,14,10,3,-5,10,-3
1622149422867899,5,-4,-5,8,14,29,0,-2
1622149422867899,-18,-6,-12,-28,-46,-24,15,-1
1622149422880876,-13,-7,-4,7,17,12,-21,-6
1622149422880876,37,7,7,19,-28,-10,25,7
1622149422888854,-16,-4,3,-7,19,-5,-28,13
1622149422888854,-22,6,-11,-1,35,9,-33,-39
1622149422903959,25,9,7,-7,-33,13,12,3
1622149422903959,-20,-5,-8,20,21,-22,-14,-7
1622149422912243,12,-2,-6,-23,-12,-7,8,-5
1622149422912243,-2,1,2,23,18,16,-2,-22
1622149422927637,-25,-24,-7,-23,-14,-2,17,16
1622149422927637,5,25,8,7,30,19,-10,-19
1622149422927637,5,-3,5,-9,6,-6,8,15
1622149422927637,-1,-2,2,14,-46,-16,-13,-4
1622149422940610,5,-6,-18,-22,16,15,-20,-8
1622149422940610,-2,-8,4,-3,15,1,-21,0
1622149422948586,-7,-1,-11,-12,-19,9,46,-5
1622149422948586,14,-1,18,44,21,-18,15,24
1622149422963544,-4,2,7,-3,-12,-2,-8,-23
1622149422963544,-10,-6,-21,-44,-18,-9,-13,3
1622149422971524,9,5,-3,5,28,-24,-45,-9
1622149422971524,16,-8,-3,-18,1,18,33,5
1622149422987199,-9,4,1,40,-4,2,17,8
1622149422987199,-2,0,23,11,-23,-40,1,20
1622149422987199,-2,-18,-6,8,-14,14,-1,-12
1622149422987199,0,16,3,-14,6,2,-25,3
1622149423001576,-2,-7,-17,-24,2,4,5,-1
1622149423001576,3,-3,-6,-23,-1,9,22,2
1622149423009076,-11,6,28,56,2,-4,-29,-18
1622149423009076,10,-14,-5,16,-2,-8,17,35
1622149423023950,-2,5,-5,-26,18,2,-6,-9
1622149423023950,15,-10,-5,-13,-5,-5,-4,-14
1622149423031869,-15,-2,-7,-7,-18,12,13,8
1622149423031869,-4,8,-8,11,-2,-20,-24,-17
1622149423046917,7,5,2,19,-6,-9,22,2
1622149423046917,-1,-3,-5,-32,-3,8,9,6
1622149423047896,4,-1,-15,3,-8,-12,-16,-11
1622149423047896,0,5,7,-3,7,17,18,15
1622149423061619,-4,-8,-8,-24,6,-3,13,7
1622149423061619,-18,-8,-7,28,-1,-19,-22,-9
1622149423069115,11,21,7,3,-6,8,30,2
1622149423069115,-4,3,-8,-40,-11,-24,8,19
1622149423083824,6,3,-2,7,-2,18,-14,-5
1622149423083824,-2,3,8,11,17,-23,-21,1
1622149423091805,-3,-3,-12,-25,40,6,24,11
1622149423091805,8,-5,8,-1,-36,-1,-8,-3
1622149423106760,25,7,1,-10,-10,3,1,-39
1622149423106760,-42,4,-14,-12,4,7,-5,16
1622149423107736,9,-5,9,19,-14,7,-7,-2
1622149423107736,-1,-6,-4,1,41,-11,-19,-8
1622149423121539,-17,-10,3,2,-22,11,11,1
1622149423121539,20,3,-3,-12,-15,-4,1,1
1622149423129057,-10,-13,-6,10,8,1,8,4
1622149423129057,6,3,6,-1,0,17,-9,-16
1622149423143848,-10,-2,-2,-9,-5,0,-1,-2
1622149423143848,-7,-1,7,20,17,-18,-39,-26
1622149423151822,7,-3,6,-9,-15,9,23,36
1622149423151822,-8,14,-13,-16,-18,-4,-21,-10
1622149423167251,-2,-5,-8,-4,14,-12,-13,5
1622149423167251,7,6,9,4,3,28,24,13
1622149423167251,0,-4,-6,-5,-9,-44,-10,-16
1622149423167251,-2,-3,0,5,-7,19,7,-7
1622149423180851,-7,4,11,6,7,-12,-8,6
1622149423180851,8,-9,-6,2,-2,9,-8,-1
1622149423189056,-1,2,-6,-19,15,4,6,-9
1622149423189056,11,-6,9,0,19,-5,-13,43
1622149423203743,4,17,20,8,-14,20,3,-34
1622149423203743,-16,-4,1,-27,9,-31,-6,-3
1622149423212249,34,5,2,14,-22,3,3,-1
1622149423212249,-15,-4,12,29,12,4,15,-8
1622149423227226,0,-11,-13,-26,11,5,5,22
1622149423227226,-13,0,-1,4,-21,-3,-2,-7
1622149423227226,-6,1,-3,-14,8,-2,-24,-20
1622149423227226,3,-6,-11,-21,-1,10,29,-8
1622149423241316,-11,17,19,50,26,9,10,17
1622149423241316,10,-3,-7,1,-25,-4,-2,-17
1622149423248970,10,-14,-22,-31,-6,10,2,8
1622149423248970,-14,1,7,26,-14,-3,-21,-24
1622149423263864,-7,-11,-19,-17,26,-12,-9,1
1622149423263864,8,-2,-2,3,-26,24,-5,3
1622149423272333,-19,3,0,3,2,-10,37,-4
1622149423272333,9,-8,-4,-6,18,-7,-34,-4
1622149423286786,-4,-8,0,-12,-31,15,13,0
1622149423286786,2,13,-1,17,8,-6,5,-2
1622149423287782,-11,-11,5,13,32,14,-23,2
1622149423287782,9,0,10,3,-13,-2,8,-5
1622149423300746,-1,-11,-18,-27,10,-6,10,0
1622149423300746,8,0,44,16,-6,4,10,21
1622149423308756,-12,14,1,6,-23,-3,-3,-10
1622149423308756,5,-9,-5,7,21,14,7,12
1622149423323735,11,18,-8,-3,-5,-23,-12,-8
1622149423323735,0,-11,-6,-8,-49,22,4,-8
1622149423330800,-7,-2,1,8,6,1,5,5
1622149423330800,-3,4,-7,-6,-37,-15,-23,-9
1622149423345931,18,-9,8,19,8,-4,29,13
1622149423345931,-18,10,-17,-25,29,21,4,4
1622149423353908,-8,-5,9,12,-1,-23,-5,11
1622149423353908,-1,-5,-10,0,-2,8,-1,-4
1622149423361588,-1,1,14,-28,-22,12,-27,-4
1622149423361588,3,-2,1,41,13,-18,53,7
1622149423368985,-6,-2,-4,-3,-4,-1,-11,1
1622149423368985,-1,-8,-8,-17,18,1,25,1
1622149423383963,-7,-1,-7,9,6,-16,-32,2
1622149423383963,25,-9,-10,-12,-51,-2,-4,-3
1622149423391629,-23,-16,-1,-9,14,-13,3,21
1622149423391629,-4,22,-3,5,-3,-5,1,-2
1622149423405877,-5,-8,-2,0,-11,9,1,-5
1622149423405877,-1,-2,-8,1,22,-26,-4,-8
1622149423414699,-2,-2,12,3,-8,19,0,-7
1622149423414699,23,-1,-9,-25,-22,-10,-6,8
1622149423421603,-13,-4,-9,-6,11,-2,-7,11
1622149423421603,-5,1,16,15,23,9,-17,-39
1622149423429094,2,1,-9,-9,-11,12,-3,-5
1622149423429094,5,1,1,7,8,-5,7,3
1622149423443854,-7,0,-7,-13,3,-10,10,-4
1622149423443854,-16,-13,-11,-4,-27,3,-5,1
1622149423450860,-2,19,5,16,5,-4,-10,-4
1622149423450860,11,-12,-3,1,-4,9,-17,-31
1622149423466415,-10,10,-8,-7,10,11,9,17
1622149423466415,-7,1,10,4,17,-26,9,16
1622149423474692,-4,-4,-14,-8,-16,7,-20,-13
1622149423474692,-21,-8,3,-27,2,3,-12,-7
1622149423480768,15,-5,4,30,2,0,-31,3
1622149423480768,-5,-7,-9,-13,4,4,-6,-9
1622149423488744,13,9,1,-3,2,4,20,14
1622149423488744,-11,12,1,-4,6,-5,12,1
1622149423503872,-1,-14,-12,-2,-13,-4,5,-5
1622149423503872,2,9,12,-21,9,-2,-16,12
1622149423511595,-12,-9,-13,0,-4,-10,-27,-40
1622149423511595,18,0,10,9,16,27,9,-5
1622149423526618,-9,-5,-4,-5,-1,-8,15,6
1622149423526618,9,6,-2,12,9,10,-7,-2
1622149423534793,3,12,6,-22,13,14,28,14
1622149423534793,-17,5,-4,10,-14,-24,-1,9
1622149423548881,-6,1,23,14,-3,21,37,-11
1622149423548881,-5,-18,-20,-11,-32,-16,-35,-43
1622149423549881,6,1,3,-15,4,6,-8,37
1622149423549881,-16,-5,1,14,24,15,-1,-6
1622149423563815,18,4,-4,-9,-9,-19,0,4
1622149423563815,-3,18,3,1,-29,-7,-3,-21
1622149423570925,-1,-7,-5,1,13,4,11,15
1622149423570925,16,-6,-4,-15,-19,-14,-14,0
1622149423586637,-10,1,10,17,4,2,6,4
1622149423586637,-10,-12,-10,-16,28,8,-6,12
1622149423593621,7,13,7,15,-23,-26,5,-6
1622149423593621,2,-3,-14,-5,-27,9,-3,10
1622149423611283,-3,1,19,-3,16,13,29,-10
1622149423611283,0,-5,-14,12,7,-13,-36,17
1622149423611283,-5,-10,9,-4,18,29,27,-10
1622149423611283,-14,-5,-14,-1,1,-26,-8,-18
1622149423623980,-15,5,15,-5,-12,-7,0,7
1622149423623980,2,-5,-9,-7,2,6,13,26
1622149423638879,2,3,1,6,4,-6,-2,-7
1622149423638879,-1,6,12,4,14,7,-11,-31
1622149423645836,4,3,-9,12,-20,-22,-12,26
1622149423645836,2,-7,3,-5,26,1,25,32
1622149423653813,1,-7,-12,-24,-32,-7,-33,-62
1622149423653813,-17,-13,-8,2,-2,-1,7,16
1622149423669007,29,23,12,-7,5,-2,-21,-9
1622149423669007,-15,-6,10,13,-2,5,25,3
1622149423669909,7,-1,1,8,-1,-9,0,13
1622149423669909,-10,-8,-12,-35,-5,-13,-29,-6
1622149423683865,-7,-16,-12,13,-7,27,16,-21
1622149423683865,14,9,-6,-3,-7,-13,-27,-24
1622149423691595,-18,-12,1,-9,2,-7,41,11
1622149423691595,-4,19,10,14,12,8,-28,4
1622149423707362,7,-8,-11,-1,-25,-24,2,6
1622149423707362,-9,0,12,-5,16,8,-16,-20
1622149423713806,10,9,-10,14,-20,-14,-33,11
1622149423713806,8,-5,3,11,1,22,64,15
1622149423729800,-9,1,-2,-5,24,-9,-11,-5
1622149423729800,12,-6,-18,-7,-36,-7,-13,3
1622149423729800,-4,-5,6,27,38,41,-2,-6
1622149423729800,-8,5,7,2,-22,-27,-32,3
1622149423743685,-4,-4,-14,-25,14,11,-26,-13
1622149423743685,4,3,-14,-8,1,13,46,-5
1622149423759715,-20,-1,24,11,10,-4,-9,9
1622149423759715,12,-1,-1,2,-40,-1,5,-3
1622149423766700,-10,3,0,6,24,-30,29,31
1622149423766700,-1,-10,-14,-19,-3,8,-27,-20
1622149423774757,10,24,6,3,-4,-20,3,-22
1622149423774757,6,-4,3,0,1,13,-1,6
1622149423789795,1,-5,18,15,-8,-11,-27,5
1622149423789795,0,2,-1,6,32,24,68,21
1622149423789795,14,-12,-7,-13,-24,-25,-23,3
1622149423789795,-6,-12,-15,-15,7,21,28,-5
1622149423803784,-12,8,-10,5,-10,-8,-58,-26
1622149423803784,-5,7,19,32,0,2,1,-4
1622149423811081,3,-6,-9,-18,2,15,12,3
1622149423811081,-7,-13,-1,-9,16,-34,-7,-1
1622149423826749,35,19,17,17,-2,8,18,-9
1622149423826749,-50,-11,1,10,2,-24,-11,-19
1622149423834779,10,0,-14,-43,-14,-11,-24,-2
1622149423834779,10,-8,15,39,-7,21,27,11
1622149423848893,-16,-1,-23,-30,-4,17,-3,-11
1622149423848893,27,7,8,-6,8,-7,-32,17
1622149423849866,-19,1,-6,7,-23,-8,36,4
1622149423849866,-5,-3,-4,5,24,16,-23,-22
1622149423863794,3,-12,-3,0,-39,1,20,35
1622149423863794,11,4,8,-26,13,2,-16,-1
1622149423870830,-9,-9,4,26,-14,13,-23,0
1622149423870830,34,14,3,5,10,-22,12,3
1622149423885826,-28,-9,-6,-14,21,10,9,-3
1622149423885826,2,2,3,15,-16,6,22,2
1622149423894795,4,-16,2,5,24,5,-12,17
1622149423894795,-6,14,-13,-20,-22,-17,7,4
1622149423917711,11,-16,6,14,1,12,24,-2
1622149423917711,0,6,-11,-16,-27,-3,5,-1
1622149423918724,-5,-7,-6,-3,20,-4,10,-5
1622149423918724,-8,11,5,11,-21,-13,-21,2
1622149423924056,8,-7,-4,-21,-3,-3,2,-10
1622149423924056,1,-6,-13,-1,15,2,-8,-9
1622149423930833,-8,-6,1,1,-33,9,-5,-2
1622149423930833,1,9,2,-6,-4,-9,24,13
1622149423947883,16,-6,-11,6,12,-26,-39,-11
1622149423947883,-15,-4,19,14,8,-1,18,15
1622149423953964,0,1,3,-8,-2,18,-11,-7
1622149423953964,23,-7,4,4,20,-10,2,1
1622149423969791,-27,3,-8,-10,-5,0,0,-16
1622149423969791,14,-16,-6,16,8,-1,-29,-4
1622149423969791,-8,10,2,-8,-32,-11,39,11
1622149423969791,20,5,-3,-7,17,4,-22,-24
1622149423983795,2,3,3,6,2,1,0,-15
1622149423983795,-4,-14,-6,-1,-5,7,-20,4
1622149423990802,5,18,1,-19,0,4,0,-3
1622149423990802,-15,1,2,10,1,-15,-46,5
1622149424005735,-1,-7,-6,-10,-18,6,37,11
1622149424005735,1,2,9,11,13,20,-34,1
1622149424014729,-2,-6,-18,-12,-9,-6,10,-12
1622149424014729,-8,-5,9,32,25,13,7,-19
1622149424029029,0,-5,6,-1,-4,-1,-10,26
1622149424029029,0,14,-10,-7,-7,1,20,-1
1622149424037357,5,-2,-1,-8,19,-2,-7,23
1622149424037357,-2,-11,0,-24,-31,3,-4,3
1622149424043348,5,2,-2,8,25,4,21,3
1622149424043348,-2,4,4,-3,-8,-9,12,-9
1622149424051359,-2,-10,-3,-1,3,-5,-7,21
1622149424051359,-9,6,5,18,8,11,9,-13
1622149424065727,16,5,-8,-9,3,18,-13,-4
1622149424065727,1,17,-2,-15,-7,-11,18,0
1622149424074821,-10,-9,-7,6,-16,-22,-30,-22
1622149424074821,19,-5,3,11,11,10,9,14
1622149424089777,-9,0,3,-13,-23,-7,-29,-7
1622149424089777,-7,1,1,9,13,-3,23,5
1622149424089777,4,-17,-2,2,5,9,-2,-29
1622149424089777,-7,2,-4,-11,11,21,24,-10
1622149424104100,0,1,-5,-5,-29,-15,-9,-1
1622149424104100,-18,-20,-8,11,10,-1,6,8
1622149424111598,13,14,0,-25,-2,5,-26,-29
1622149424111598,-27,-10,-17,-2,-7,-11,-7,7
1622149424126653,0,8,10,-16,-5,4,1,-13
1622149424126653,8,3,3,35,-6,1,-2,2
1622149424134804,0,3,-1,6,6,4,-19,3
1622149424134804,-6,5,-1,-14,9,0,8,12
1622149424149353,5,-2,-2,22,2,-10,-24,2
1622149424149353,-15,-7,-15,-27,-1,-9,9,-3
1622149424150349,7,2,16,3,4,8,7,8
1622149424150349,2,-17,-26,-11,-14,3,-3,-24
1622149424163660,-16,15,22,12,28,-14,8,2
1622149424163660,9,-6,5,12,-27,6,2,2
1622149424179764,-10,20,0,13,13,14,19,3
1622149424179764,-15,-11,-6,-27,-20,-8,-40,-20
1622149424185774,5,-5,-7,2,31,4,37,19
1622149424185774,-19,-7,-15,-24,-14,7,-47,-42
1622149424194837,37,3,16,17,-11,-15,23,27
1622149424194837,-17,-1,4,7,7,-9,10,-9
1622149424209807,-11,-8,-2,8,3,-7,-31,-13
1622149424209807,15,12,5,-20,-3,15,6,13
1622149424209807,-21,-9,-12,-7,2,-22,16,-26
1622149424209807,-4,14,-4,-2,-2,29,-40,5
1622149424224119,13,-18,7,8,-14,-10,12,6
1622149424224119,5,3,6,7,22,-7,-3,-30
1622149424230817,-5,2,1,0,-12,-5,7,11
1622149424230817,10,-9,1,7,12,-8,-4,15
1622149424245992,-3,-4,-11,-9,-27,4,7,-2
1622149424245992,3,6,-8,-16,10,-2,-2,10
1622149424255444,2,-3,12,2,15,-10,-21,-5
1622149424255444,-6,2,5,7,-8,19,47,16
1622149424269797,0,-5,-10,-5,-11,-1,-26,-51
1622149424269797,4,0,-3,-15,-4,-22,4,38
1622149424269797,12,1,23,17,19,19,-21,1
1622149424269797,-7,-2,12,12,-9,-14,-8,11
1622149424283810,15,4,-1,-10,8,-12,29,-2
1622149424283810,-12,-9,3,5,-12,1,-6,3
1622149424290802,14,6,-15,2,-12,0,5,13
1622149424290802,-2,-1,-3,-11,15,10,-31,-34
1622149424306659,-10,-7,-5,-13,-6,0,-1,10
1622149424306659,1,4,-1,-3,6,-3,21,-7
1622149424314792,-6,-20,-9,17,16,13,-17,7
1622149424314792,-3,0,6,-30,-26,-23,9,5
1622149424329019,24,5,-13,-1,29,12,-11,5
1622149424329019,-9,-18,-4,0,1,-13,5,-3
1622149424336789,-18,10,-11,-16,-10,-10,9,-5
1622149424336789,9,-4,11,-4,-6,-1,52,19
1622149424343775,-10,-3,19,22,1,-12,-41,-32
1622149424343775,5,3,-5,11,7,11,6,18
1622149424350729,2,-11,-22,-26,-10,-15,-6,22
1622149424350729,-4,5,0,-11,-10,-4,8,0
1622149424365686,-5,-1,0,23,-1,-5,0,-2
1622149424365686,-3,-7,-5,1,15,10,30,-5
1622149424374853,-3,5,2,3,-1,1,-30,-25
1622149424374853,2,-2,-12,-12,-4,-17,3,15
1622149424388891,-4,-19,-9,-2,10,30,-24,8
1622149424388891,-7,28,-3,4,-20,-5,41,-1
1622149424397338,-8,-8,-1,24,10,-4,-2,-6
1622149424397338,4,2,8,18,2,-10,-5,10
1622149424404836,2,-4,3,-2,-12,0,4,11
1622149424404836,21,4,-4,-12,-19,11,-3,-7
1622149424411719,-1,3,-7,-3,-21,-6,8,-5
1622149424411719,-4,0,18,7,17,7,-13,1
1622149424425873,9,11,0,4,8,-10,34,25
1622149424425873,-2,-7,-2,0,-10,-16,-42,-31
1622149424442263,-1,3,6,-8,6,10,15,25
1622149424442263,5,-9,-10,10,-4,4,-5,-19
1622149424448369,-18,0,8,-2,-16,-5,14,8
1622149424448369,5,14,-7,-23,10,14,-1,3
1622149424456341,4,-7,8,14,-18,-9,-15,-12
1622149424456341,3,9,0,10,33,6,-18,4
1622149424472333,-14,-8,-24,-39,-34,-17,8,5
1622149424472333,-20,-9,6,1,22,-2,-12,1
1622149424472333,-3,-14,-9,-22,-33,-4,5,-18
1622149424472333,4,5,-9,8,5,4,-3,5
1622149424485855,-9,10,-2,5,3,4,-4,-13
1622149424485855,12,-14,-6,-24,-10,14,13,19
1622149424494831,-7,10,3,-7,4,-19,-21,-14
1622149424494831,7,-14,0,21,-31,-10,-5,-8
1622149424508819,-15,1,-13,-32,-1,17,18,7
1622149424508819,15,-1,3,21,3,-8,-2,9
1622149424516773,-4,-13,-6,-6,3,3,14,4
1622149424516773,-28,2,6,7,1,4,-12,10
1622149424531824,3,-2,-4,2,3,9,-38,-6
1622149424531824,-10,-26,-6,3,-16,-11,32,13
1622149424532820,12,16,-13,-34,9,-18,-44,-6
1622149424532820,1,-8,11,16,2,-18,-7,-14
1622149424545896,2,23,5,15,2,43,31,-2
1622149424545896,6,-7,7,-1,4,-21,-2,5
1622149424553901,-15,-15,-10,-8,-12,-14,-16,-11
1622149424553901,4,10,-23,-27,-10,0,16,11
1622149424569019,17,-7,19,18,15,4,-7,-1
1622149424569019,-9,16,-1,-2,9,11,-12,-5
1622149424577329,1,0,2,9,-30,4,26,1
1622149424577329,20,9,0,6,7,-7,-22,-10
1622149424591972,-2,-19,-10,-11,0,-12,-6,-1
1622149424591972,-32,20,5,5,-9,-5,25,6
1622149424592967,-24,-5,2,5,10,-3,11,14
1622149424592967,20,-10,-2,-22,4,4,-37,4
1622149424606023,0,12,-6,-5,3,-20,-16,-15
1622149424606023,10,-11,-3,2,-25,-14,-22,-8
1622149424614394,-1,11,18,6,28,25,68,8
1622149424614394,-14,-4,-16,6,8,7,-24,-18
1622149424629084,-3,-5,1,-5,-11,-16,8,11
1622149424629084,13,-6,-1,-19,17,0,-26,-18
1622149424636884,7,10,-1,15,-24,-9,-17,-9
1622149424636884,5,-4,1,11,20,25,48,4
1622149424651913,-37,-11,-13,-15,-5,-11,8,1
1622149424651913,-9,3,19,45,6,11,-11,-3
1622149424652910,-15,0,-4,-9,27,12,5,15
1622149424652910,27,2,-4,-38,-48,-14,-3,3
1622149424665865,-16,-16,-13,-27,-5,15,29,5
1622149424665865,11,18,8,20,0,-32,-13,1
1622149424674151,-5,-2,13,37,8,-3,-21,24
1622149424674151,-23,7,-9,-11,26,28,3,-2
1622149424689116,18,-5,2,6,-29,-4,-11,-14
1622149424689116,-15,-10,-3,-13,8,-4,-4,-9
1622149424696764,29,0,-9,-1,13,7,-20,-17
1622149424696764,-18,-2,12,-9,-33,-19,15,4
1622149424712354,12,9,28,32,34,3,6,5
1622149424712354,1,-3,-6,-34,-33,9,1,16
1622149424712354,18,7,-8,27,23,-4,9,-5
1622149424712354,-11,-12,10,-9,-13,-5,9,8
1622149424726624,8,20,-11,-12,5,-5,-37,-3
1622149424726624,-10,-1,22,36,20,-13,58,-2
1622149424734184,-1,-10,-5,-24,6,4,-28,3
1622149424734184,-1,-3,-8,-3,-11,-3,-7,0
1622149424748175,-1,3,2,29,14,27,-4,-30
1622149424748175,2,-9,-11,-34,-12,-2,-26,8
1622149424757366,2,0,15,-9,-8,9,24,2
1622149424757366,16,0,-10,10,16,-17,-10,-8
1622149424772282,-17,-2,7,7,4,-1,-8,-2
1622149424772282,4,-2,-17,-3,-12,18,0,-14
1622149424772356,-6,-7,4,-13,-2,-11,-7,-10
1622149424772356,4,-13,-6,-10,25,14,61,20
1622149424786740,7,-1,12,4,-33,-43,-27,-6
1622149424786740,6,3,-13,28,20,11,-2,-9
1622149424793723,-10,-6,-9,1,-5,6,7,4
1622149424793723,-7,3,-3,-16,-13,-16,-17,-12
1622149424809158,4,-6,6,-1,15,0,13,22
1622149424809158,0,-17,1,-13,-18,0,6,3
1622149424816528,-13,3,-7,-12,-15,-8,-47,-12
1622149424816528,-10,-2,-6,16,10,16,-33,-6
1622149424839884,3,4,-9,-14,-19,-8,44,-14
1622149424839884,5,-2,-1,-10,-16,-3,-13,1
1622149424840869,7,-3,1,0,26,2,6,8
1622149424840869,16,-13,-8,-8,-4,4,33,-4
1622149424846526,-18,21,2,-3,2,-26,-28,10
1622149424846526,-4,-4,3,8,14,33,-18,-25
1622149424853323,4,6,8,-13,-2,-23,12,-7
1622149424853323,2,0,4,11,5,-12,11,12
1622149424869773,-3,2,-14,-25,-9,19,-2,-2
1622149424869773,8,-2,-2,2,3,-12,-8,-12
1622149424877293,-17,2,-4,39,-12,6,17,4
1622149424877293,-10,6,1,2,15,14,24,-8
1622149424892256,21,-11,5,1,-8,-23,-41,8
1622149424892256,-2,-2,-18,-25,-13,-3,-11,4
1622149424892256,5,7,8,6,4,13,25,-4
1622149424892256,-17,4,-3,13,7,5,-30,-30
1622149424906660,31,-17,-8,-1,-7,15,42,35
1622149424906660,-21,24,4,0,-1,-13,-24,-27
1622149424913439,5,-26,-5,-7,2,9,12,4
1622149424913439,-12,-2,2,-4,-30,-20,-9,4
1622149424929119,7,-4,-2,-15,21,5,-10,1
1622149424929119,7,4,7,16,10,11,-5,21
1622149424937392,-6,-3,-3,3,-12,-15,19,-12
1622149424937392,-5,-4,4,0,-4,-11,-26,-8
1622149424951904,-17,-6,-6,0,-33,-3,-6,1
1622149424951904,2,-1,1,-9,9,8,54,21
1622149424952876,-15,5,-11,-19,1,-15,-20,-24
1622149424952876,7,8,-4,-19,-1,20,-23,19
1622149424966748,-3,-5,-4,14,-11,-63,7,-18
1622149424966748,7,2,4,13,4,-8,-24,-40
1622149424974240,19,-2,-9,-20,-7,0,5,7
1622149424974240,-19,0,-2,-7,-6,-7,-20,-32
1622149424989132,-9,1,0,0,-7,27,16,17
1622149424989132,15,-2,6,4,15,9,19,14
1622149424996760,-1,-14,-9,-11,-22,-14,2,4
1622149424996760,10,9,-1,-1,8,-9,2,-4
1622149425011720,-14,13,3,13,15,8,2,-15
1622149425011720,-3,4,12,-20,-4,-18,13,17
1622149425012717,2,-21,1,22,8,34,-27,0
1622149425012717,-11,-1,2,-2,3,-14,11,26
1622149425026679,20,-1,-19,11,7,3,11,-18
1622149425026679,-8,-2,-4,-12,-19,-2,1,12
1622149425033661,0,9,8,-7,10,7,-11,8
1622149425033661,0,-9,-4,1,3,-6,-2,-28
1622149425048722,-22,5,13,13,19,28,-13,-5
1622149425048722,8,-9,5,34,2,-3,-5,-2
1622149425056720,9,19,-2,-11,-17,-3,-7,1
1622149425056720,-4,-14,-11,2,1,3,20,12
1622149425072369,2,17,13,6,10,4,-1,-14
1622149425072369,-8,-13,3,-22,-6,3,-38,15
1622149425072369,-11,4,-4,9,8,-3,41,9
1622149425072369,10,3,-3,-4,-27,-13,-27,-18
1622149425086763,1,-6,1,-4,5,-18,-4,-2
1622149425086763,-4,-3,-16,-5,-4,-1,-3,-17
1622149425094195,1,-4,-11,-22,-23,5,38,9
1622149425094195,27,-6,5,-4,-3,12,-30,36
1622149425109153,-5,-1,-11,0,19,7,35,-4
1622149425109153,-25,4,3,4,-38,-20,17,-3
1622149425117429,-7,-8,-1,8,23,9,-14,-7
1622149425117429,10,-9,14,20,13,0,20,7
1622149425132302,-4,0,-3,-5,5,19,-21,-3
1622149425132302,1,-3,-23,-2,6,2,-13,4
1622149425132302,11,4,4,-24,-1,9,16,-2
1622149425132302,-17,-4,-4,-9,-8,-5,10,-16
1622149425146463,5,-20,-11,10,25,-21,-3,30
1622149425146463,-29,22,7,-18,-27,5,-20,-39
1622149425153271,12,-4,2,11,-34,-13,32,11
1622149425153271,3,11,-14,-5,7,-35,-40,-4
1622149425169161,1,-12,13,9,-2,10,-11,-3
1622149425169161,4,-5,-17,-25,4,-10,10,22
1622149425177403,24,3,4,18,3,21,-7,-32
1622149425177403,-26,2,-10,-19,-7,18,15,7
1622149425192356,1,1,-2,11,2,-5,12,4
1622149425192356,3,2,0,6,1,-1,-3,16
1622149425192356,0,-13,-3,6,-9,-23,-41,-12
1622149425192356,10,39,22,-7,8,-1,37,7
1622149425206738,-7,-6,3,-23,-13,14,-31,-13
1622149425206738,5,-2,-5,1,17,16,-7,-5
1622149425213413,-10,-4,-14,13,28,-12,0,4
1622149425213413,1,-6,28,12,-9,-18,-7,-8
1622149425229114,-21,3,-3,-17,-55,-6,-12,-7
1622149425229114,33,-2,-1,-10,16,7,15,4
1622149425237374,-1,-5,-6,11,-6,0,-22,-7
1622149425237374,-16,-3,-10,14,18,16,23,11
1622149425251366,21,19,17,-16,8,-12,-3,-3
1622149425251366,-13,-17,-7,-3,-12,-23,-3,3
1622149425259415,7,-5,14,29,7,32,4,-11
1622149425259415,-3,21,-14,-26,-4,-37,-10,2
1622149425266304,-10,-6,3,21,-4,5,7,1
1622149425266304,-3,-2,1,-13,-11,0,-18,-15
1622149425273855,-9,18,14,-15,28,-15,3,3
1622149425273855,7,-8,-4,10,-21,11,24,2
1622149425288815,9,-5,-16,9,2,18,24,20
1622149425288815,-5,12,19,13,4,-34,-17,-21
1622149425304870,-7,-2,-12,-22,25,3,-54,-20
1622149425304870,-1,6,15,6,-34,13,27,32
1622149425311715,-10,-13,-12,-14,-7,2,-3,-27
1622149425311715,3,2,-7,8,-4,1,-1,5
1622149425319876,2,4,6,-8,-1,-9,20,3
1622149425319876,-6,-10,-4,15,-1,-2,-37,2
1622149425326753,20,1,-6,-17,-27,-14,-3,7
1622149425326753,1,-3,5,-3,25,-1,9,8
1622149425334202,-18,-6,-19,-7,6,-11,-8,0
1622149425334202,8,-6,-4,0,-9,13,-3,-9
1622149425348252,-12,-3,-9,-11,-13,8,21,9
1622149425348252,16,1,-5,-1,12,-16,-18,-7
1622149425357383,-5,0,12,3,-5,-7,4,12
1622149425357383,-2,-7,-13,14,0,9,32,-17
1622149425370823,-1,-2,4,-31,15,-25,-32,23
1622149425370823,5,-2,-10,-9,-22,12,11,-6
1622149425379813,10,-7,-10,-3,-12,16,11,30
1622149425379813,7,11,7,18,13,-17,20,-5
1622149425385805,-9,-3,-13,-6,6,0,-28,3
1622149425385805,0,-10,19,19,24,-3,2,-5
1622149425393809,-16,-2,-12,-26,-19,14,7,-3
1622149425393809,21,2,-4,-4,9,-18,-12,-3
1622149425408762,-8,-4,0,-6,22,-3,-5,-14
1622149425408762,-10,-4,-7,5,-37,12,7,10
1622149425424814,0,8,18,29,22,-25,9,-7
1622149425424814,-11,-14,-2,-22,30,-1,-33,0
1622149425430782,-5,5,7,26,-19,-17,7,1
1622149425430782,-1,0,2,-6,-10,15,3,-40
1622149425439757,-8,-11,-23,-22,-2,-14,-31,-14
1622149425439757,6,21,10,-2,9,14,6,2
1622149425454862,-12,-7,10,28,5,7,3,5
1622149425454862,0,12,-7,-2,6,4,-9,10
1622149425454862,5,-4,8,-4,-23,3,4,6
1622149425454862,2,-22,-17,-16,5,-3,-7,-12
1622149425469141,1,8,-3,13,23,19,8,-5
1622149425469141,10,4,0,9,-10,-16,-2,6
1622149425477378,-12,1,1,-22,-31,-2,5,3
1622149425477378,-16,-12,-1,-5,-5,10,-18,0
1622149425491679,9,7,-7,-7,23,16,16,-15
1622149425491679,4,-7,13,13,-5,7,19,20
1622149425499337,-37,-9,-12,1,-2,-29,5,12
1622149425499337,-1,3,11,14,-14,26,-21,-18
1622149425514357,3,-1,5,-3,-14,-2,-11,5
1622149425514357,9,2,0,-12,-6,-17,-6,5
1622149425515355,6,4,4,-2,20,9,6,3
1622149425515355,-8,-11,2,15,-8,4,19,2
1622149425528971,-5,-14,-10,-9,-32,-4,5,7
1622149425528971,-4,6,2,-5,11,6,-24,7
1622149425537405,8,0,11,15,2,6,28,-3
1622149425537405,-16,7,-12,6,18,-13,2,-2
1622149425551399,9,1,3,-1,-4,-3,3,-7
1622149425551399,-18,-21,-23,-18,-6,2,13,-23
1622149425559424,9,23,32,36,-3,-20,-31,2
1622149425559424,9,-2,5,15,1,5,0,-7
1622149425583020,-12,-3,-16,-33,-7,-19,2,-7
1622149425583020,-5,-1,13,-27,7,15,-4,17
1622149425583793,2,4,-7,26,28,6,-2,0
1622149425583793,-20,-8,-6,-13,-36,0,7,-4
1622149425589170,17,1,3,-4,5,-2,30,13
1622149425589170,-29,-10,-7,30,13,-11,-56,-7
1622149425596892,16,-6,-6,-29,-10,-13,44,-29
1622149425596892,7,5,10,3,18,-11,-32,29
1622149425611708,13,5,-5,7,20,8,20,-1
1622149425611708,0,-14,-10,-5,-26,-6,0,24
1622149425619817,-21,26,12,4,-5,8,-16,-7
1622149425619817,14,-5,-13,-17,-8,-12,34,-9
1622149425633915,2,1,6,3,-13,-1,-38,-4
1622149425633915,-1,-10,2,4,18,-25,-24,4
1622149425634913,-2,-5,-5,5,-11,3,7,-3
1622149425634913,-3,0,-4,-19,-17,3,23,3
1622149425648874,9,4,-1,-6,-33,9,12,-6
1622149425648874,19,8,-2,2,32,6,-5,9
1622149425656831,-3,-21,-19,-11,-2,-18,-22,-6
1622149425656831,-5,7,6,-1,2,0,-4,-8
1622149425670815,-12,-6,-3,17,13,-13,-12,-11
1622149425670815,26,-9,8,-21,-12,11,26,-7
1622149425679774,-40,12,-8,-15,0,11,-10,-19
1622149425679774,30,-17,-11,8,14,4,8,34
1622149425693844,-13,8,7,1,25,13,-20,0
1622149425693844,0,0,-2,-8,-14,8,32,-5
1622149425694846,20,-4,8,5,-14,-6,16,9
1622149425694846,-24,-17,-5,-1,-2,-9,-27,-3
1622149425709187,-4,10,-9,8,-4,9,-37,-1
1622149425709187,-16,6,-19,-61,-5,2,52,-3
1622149425717411,13,-7,10,30,-30,-2,-38,-11
1622149425717411,-2,5,5,11,23,8,-5,-12
1622149425731714,10,-5,1,-11,-21,-22,3,3
1622149425731714,-16,7,1,36,11,-17,-19,-10
1622149425739419,6,-8,-16,-19,9,2,11,12
1622149425739419,-1,-4,22,-14,-19,56,17,1
1622149425754821,-15,-5,3,-4,2,-44,-16,-8
1622149425754821,9,0,1,15,0,16,21,14
1622149425754821,1,-2,-10,-9,1,-7,-15,6
1622149425754821,-8,-7,14,1,-1,-8,3,-8
1622149425768796,17,2,0,12,3,9,-4,9
1622149425768796,-11,4,17,13,3,-6,12,-15
1622149425777435,14,-8,-10,-27,-19,21,-1,9
1622149425777435,-24,0,-13,-3,9,-7,-10,0
1622149425791690,5,4,10,3,-6,-1,25,6
1622149425791690,-1,-6,-18,-6,9,3,-38,-29
1622149425799336,5,2,13,19,2,-28,-18,-2
1622149425799336,3,1,-5,0,-2,-12,-6,-21
1622149425814392,-1,-6,-7,-21,-16,11,-16,6
1622149425814392,-24,-12,-9,5,9,25,10,2
1622149425815389,23,42,3,-2,47,-7,10,38
1622149425815389,-2,0,-1,1,-37,-3,-5,-20
1622149425829163,7,-17,0,25,12,-17,5,-4
1622149425829163,-29,4,-9,-6,4,16,-9,-17
1622149425837436,30,-6,17,4,-1,-12,0,17
1622149425837436,-22,0,-21,1,24,3,4,3
1622149425851427,-14,-4,16,5,-8,8,-1,-18
1622149425851427,-3,-5,-7,-13,-15,0,9,16
1622149425859860,-6,-16,-8,7,1,11,-6,-11
1622149425859860,15,27,0,-3,21,-6,-16,-2
1622149425874852,-9,-11,-3,-17,-13,-21,25,-11
1622149425874852,11,6,4,14,6,-5,2,14
1622149425874852,-10,-9,-4,-15,-9,2,1,-7
1622149425874852,6,-8,-6,-5,-13,0,35,33
1622149425889060,-5,29,-2,-6,8,2,-52,-32
1622149425889060,30,5,13,24,16,-9,-9,4
1622149425896901,-9,-18,-20,-13,-17,25,3,5
1622149425896901,-2,15,1,-3,-13,-6,-37,-6
1622149425911714,-15,-7,-9,-14,9,-2,41,2
1622149425911714,-13,1,-1,-9,-16,-3,-15,-6
1622149425919781,28,-10,-18,-19,2,8,9,-43
1622149425919781,-9,2,34,7,8,-5,11,8
1622149425934136,7,5,8,10,-18,19,11,9
1622149425934136,6,7,2,-13,0,-21,-5,-8
1622149425935133,-18,3,0,21,15,-1,-21,9
1622149425935133,13,-18,-9,16,-51,-11,-6,-2
1622149425949195,6,16,-7,-22,37,14,20,10
1622149425949195,-1,-7,4,10,-13,-7,34,23
1622149425957395,-6,-14,-3,10,-5,-1,-23,-46
1622149425957395,2,25,5,-10,26,-7,1,5
1622149425980473,-15,-17,-4,12,-25,-28,-16,6
1622149425980473,10,-3,-8,-7,11,17,11,1
1622149425980473,-19,-1,7,-18,-9,-9,-4,5
1622149425980473,4,-15,-2,29,19,3,-5,-9
1622149425994889,-21,-1,-3,0,3,16,-5,-10
1622149425994889,4,0,-3,-5,3,-34,9,-9
1622149425994889,-3,9,2,11,-21,17,0,27
1622149425994889,9,-15,-20,-19,-36,-14,-9,2
1622149426009198,-2,10,18,9,32,15,12,7
1622149426009198,0,-8,8,-3,1,-18,4,-1
1622149426016763,-13,7,1,-4,34,20,-9,13
1622149426016763,-7,-9,-18,-19,-46,-12,-10,-41
1622149426031707,10,-14,-18,6,8,-2,-11,6
1622149426031707,-4,5,-1,-17,-6,7,-16,3
1622149426039853,21,-2,9,-1,-1,-4,42,8
1622149426039853,-16,1,-6,-17,31,3,-2,11
1622149426054845,11,-9,-8,-6,17,14,-8,-16
1622149426054845,-12,-3,14,27,-59,-6,-14,-5
1622149426054845,-1,0,-1,-9,20,-2,-10,-1
1622149426054845,1,1,0,-1,-12,22,12,1
1622149426069195,7,-9,-3,-3,1,7,17,-4
1622149426069195,-6,7,-14,-3,18,4,25,23
1622149426076747,-6,-10,9,-16,-11,-33,-49,-31
1622149426076747,1,19,8,47,24,14,8,2
1622149426091392,16,-4,0,-6,-12,-12,2,22
1622149426091392,2,-8,-16,-40,-2,4,-17,-29
1622149426099868,5,-1,9,67,7,4,5,3
1622149426099868,-23,1,15,-14,14,-15,4,-6
1622149426114846,-6,9,-12,-8,-14,5,0,6
1622149426114846,11,5,35,25,-16,-16,-24,0
1622149426114846,14,-1,-23,-37,13,8,17,2
1622149426114846,-3,0,3,-3,-31,-27,23,29
1622149426136794,-5,-5,-9,3,-26,9,-24,-28
1622149426136794,-1,0,-1,-1,18,13,-7,26
1622149426137763,-20,-1,-2,4,-6,5,27,8
1622149426137763,44,23,-9,-41,13,18,-34,-15
1622149426151725,-17,-13,0,8,-8,-19,19,-6
1622149426151725,12,-11,5,23,4,14,-2,-7
1622149426159701,-8,2,-4,-9,-1,-11,25,1
1622149426159701,-21,-20,1,-1,-5,13,-7,5
1622149426174876,1,2,6,-1,-25,-10,-15,11
1622149426174876,4,5,-9,-4,23,9,8,0
1622149426174876,-10,0,-6,3,-6,-14,1,5
1622149426174876,0,-8,-6,-1,11,-4,-32,-45
1622149426188918,3,-2,2,1,0,-11,7,4
1622149426188918,-13,-7,-5,2,-10,-5,-14,-8
1622149426195877,0,-13,-3,5,0,5,-2,0
1622149426195877,0,3,-15,-34,-9,-8,-14,21
1622149426211714,-2,-11,6,14,32,6,21,-3
1622149426211714,19,14,14,17,-9,11,2,-9
1622149426219775,-34,-4,-1,-11,-25,-25,-6,8
1622149426219775,34,-10,-13,-8,-2,1,4,-8
1622149426234222,-27,8,25,29,31,8,-8,2
1622149426234222,-3,-5,0,-10,-1,-9,3,0
1622149426242309,2,3,-4,-4,-25,28,-22,-17
1622149426242309,-17,-5,11,13,9,-29,10,18
1622149426257391,35,7,-19,3,10,3,1,15
1622149426257391,-12,-5,-15,-21,-46,-10,-31,-41
1622149426257391,-3,2,10,14,7,5,19,9
1622149426257391,0,0,-14,-36,8,5,6,-6
1622149426271706,-6,-13,20,22,-12,8,18,32
1622149426271706,-4,5,-9,0,11,1,11,8
1622149426278989,15,12,-8,4,11,-7,-11,-1
1622149426278989,-7,-11,-9,1,-19,0,7,-8
1622149426293850,1,4,2,-9,-9,-2,9,-2
1622149426293850,1,7,-14,-12,12,7,-7,3
1622149426301832,-16,-3,9,-9,-3,0,-5,-7
1622149426301832,21,0,10,23,0,-13,-3,2
1622149426308838,-10,7,-15,-16,1,5,-11,-13
1622149426308838,-15,2,16,19,15,15,36,7
1622149426316724,30,-5,-8,-21,-25,-15,-47,-19
1622149426316724,-8,-3,7,19,13,-6,34,4
1622149426330779,5,-12,-10,-6,9,-7,-11,0
1622149426330779,-9,24,3,-7,-24,8,-1,1
1622149426339781,6,-4,-2,0,12,12,25,4
1622149426339781,1,-3,-2,5,18,-15,-27,5
1622149426353717,-6,6,8,-4,-29,10,-10,-3
1622149426353717,-6,-13,-5,-35,-9,-9,18,-5
1622149426362392,-8,10,-10,2,13,10,6,4
1622149426362392,17,9,-3,10,-1,-10,-8,1
1622149426377407,-26,-5,0,0,19,-32,-37,-17
1622149426377407,8,-15,-8,-1,-12,-5,7,12
1622149426377407,-10,-6,9,6,-4,21,-21,-8
1622149426377407,-10,-10,-8,-13,10,5,16,-1
1622149426391425,-2,8,0,0,-25,8,-20,-45
1622149426391425,13,-22,-2,4,23,8,12,2
1622149426399879,-7,13,-6,-3,-10,-36,-18,1
1622149426399879,-11,-11,-16,-20,13,4,1,-7
1622149426413375,12,7,14,32,3,7,10,0
1622149426413375,-1,-7,8,-12,3,-2,-6,5
1622149426422376,0,-7,-10,0,18,0,-1,-1
1622149426422376,-22,21,12,9,-18,-8,-29,2
1622149426436423,5,-11,-9,-12,-2,0,47,-3
1622149426436423,-1,0,4,12,14,21,14,12
1622149426437504,-14,3,10,5,17,-10,-10,2
1622149426437504,18,-5,-4,6,-39,4,11,0
1622149426451264,-11,-2,-7,-44,7,-9,-14,31
1622149426451264,2,10,0,23,-4,3,-9,-6
1622149426459870,8,-5,3,-13,-7,2,13,-1
1622149426459870,-15,-10,-10,14,15,18,0,-13
1622149426474280,5,6,8,8,16,24,34,9
1622149426474280,12,-4,10,-5,-18,-41,-45,-2
1622149426481642,-1,-7,2,-4,-26,5,18,-1
1622149426481642,-6,9,8,-2,31,3,-15,19
1622149426496897,11,-2,-10,10,-5,7,6,-19
1622149426496897,-14,4,1,-5,18,-14,-30,-5
1622149426497894,0,-3,0,-2,-9,-8,37,14
1622149426497894,16,-10,8,2,-6,-9,-29,-15
1622149426510952,-8,0,-6,-11,19,45,56,11
1622149426510952,5,7,-13,2,-23,-49,-14,1
1622149426519860,-7,2,3,-1,-1,3,-18,-2
1622149426519860,2,-6,-4,-20,-1,-2,25,-1
1622149426534723,8,-7,-18,-21,-12,-16,-18,-1
1622149426534723,-10,8,5,24,7,29,9,12
1622149426541733,2,-3,15,-26,7,-11,-2,-28
1622149426541733,-3,1,3,20,-9,-3,19,10
1622149426557208,0,-8,0,-7,-50,-17,-61,-44
1622149426557208,-7,13,-13,-17,27,25,22,3
1622149426558210,18,-5,-15,8,17,-10,0,-5
1622149426558210,-9,4,11,6,2,5,-14,18
1622149426580364,7,-5,-2,5,-24,-38,-11,20
1622149426580364,-7,-18,-9,-28,-4,9,-10,-7
1622149426581361,-7,5,-6,21,6,13,29,-3
1622149426581361,5,-2,-9,-3,-1,0,24,1
1622149426594252,13,-1,20,7,2,-4,-13,-14
1622149426594252,-11,-15,-19,-20,-17,2,10,-1
1622149426602235,18,6,7,18,15,-10,-39,1
1622149426602235,-16,-1,2,0,-25,1,7,8
1622149426617048,-32,2,-13,-8,-9,0,-8,-12
1622149426617048,22,4,0,13,2,-2,1,-13
1622149426618226,-19,-2,17,7,-4,15,14,-13
1622149426618226,2,-5,-6,-12,12,-1,11,3
1622149426631042,-2,15,1,-16,-7,6,9,9
1622149426631042,-5,-5,0,-8,-6,-21,-31,-6
1622149426639859,8,-3,-8,29,1,0,12,10
1622149426639859,-4,-14,-3,-20,0,19,10,-36
1622149426653825,-8,1,13,-3,12,-25,-58,7
1622149426653825,10,0,18,25,13,-6,60,0
1622149426661950,7,-2,-4,-11,-10,-5,-9,8
1622149426661950,-15,-1,-5,-2,-6,3,-1,1
1622149426677432,2,-3,-9,-12,1,-20,10,1
1622149426677432,-8,-16,-20,2,-19,4,-11,-3
1622149426677432,-1,5,11,-7,2,-20,-17,-1
1622149426677432,-2,25,-1,-2,8,27,23,11
1622149426692487,-10,-9,-6,8,5,-18,-34,-9
1622149426692487,29,0,-8,-1,5,9,19,35
1622149426699600,-12,0,-12,-15,4,-1,10,-9
1622149426699600,2,-6,3,0,-4,-2,-22,-14
1622149426713426,5,-8,-18,-8,-5,11,32,10
1622149426713426,-12,-3,-6,11,-8,-16,-24,-10
1622149426722085,2,1,3,-25,-14,24,-15,-27
1622149426722085,2,-2,4,39,16,-15,3,-6
1622149426737418,15,-3,-12,-19,13,4,-2,4
1622149426737418,-5,-4,4,-6,-17,-3,-3,1
1622149426737418,-11,-3,-8,10,10,-2,63,18
1622149426737418,-11,-5,4,-5,-8,-7,-65,-4
1622149426751383,-13,13,5,-5,-3,-14,25,-16
1622149426751383,16,-1,-7,-5,-9,14,-40,-22
1622149426759826,1,-12,-10,-18,17,-13,1,10
1622149426759826,-4,14,10,16,-33,14,23,-22
1622149426774262,3,-12,-17,2,28,-6,12,21
1622149426774262,-20,15,4,-2,-8,2,-11,8
1622149426782441,9,-1,2,0,-1,-14,-38,-48
1622149426782441,14,-18,2,-16,-2,-8,33,6
1622149426796856,2,6,9,32,9,29,9,0
1622149426796856,-16,-1,-5,45,15,-6,-2,-2
1622149426797854,27,7,-7,-28,-10,12,11,19
1622149426797854,4,-5,-2,3,18,8,12,15
1622149426812402,-16,-5,-1,-18,-28,-27,-3,10
1622149426812402,-19,-5,5,-13,18,1,-13,-11
1622149426819870,1,-2,-3,29,-38,-14,-15,2
1622149426819870,16,-4,-7,-25,17,3,-5,5
1622149426834256,3,9,7,18,11,24,24,15
1622149426834256,4,-2,-3,-7,-15,-10,4,-10
1622149426842316,-2,-4,-3,-11,-7,-26,-50,-9
1622149426842316,-3,6,-6,2,-23,0,45,6
1622149426857408,13,-10,2,-16,-1,22,-23,0
1622149426857408,-7,16,3,32,20,4,36,6
1622149426857408,-16,-2,0,-17,-33,0,-22,-1
1622149426857408,-2,4,24,50,38,4,-8,-2
1622149426871781,11,-10,-2,-8,-34,-27,15,-10
1622149426871781,5,10,-5,-26,2,-33,-15,14
1622149426879478,-33,7,-6,12,20,14,19,13
1622149426879478,31,1,-17,-12,-9,-13,-26,-11
1622149426894221,-27,-6,8,8,-2,9,2,-5
1622149426894221,-9,-10,7,5,12,-9,-5,1
1622149426902299,-6,-1,-7,0,-9,8,35,14
1622149426902299,-11,1,-9,-45,-10,-4,-28,-3
1622149426916777,18,11,5,33,23,-12,-27,-13
1622149426916777,-12,-16,15,8,11,19,-7,-31
1622149426917747,6,23,17,3,-29,18,19,35
1622149426917747,-12,-3,-2,-20,2,-8,-21,-10
1622149426931527,12,-3,0,2,7,4,21,8
1622149426931527,-11,-11,-11,-24,8,6,7,8
1622149426939521,0,22,0,7,15,13,-4,-20
1622149426939521,-5,-14,-7,-1,0,-23,-32,1
1622149426954285,4,10,1,3,-14,-10,-11,-7
1622149426954285,3,-5,2,3,13,7,23,17
1622149426962434,-1,-16,-10,-39,-14,22,16,0
1622149426962434,-4,6,20,47,5,-28,0,2
1622149426977426,12,-13,4,14,15,8,-11,-5
1622149426977426,-13,28,-10,-18,-8,-2,-2,-15
1622149426977426,9,-7,-3,-19,-27,-2,17,20
1622149426977426,-9,4,10,35,42,1,-35,-19
1622149426991330,3,-7,0,-4,-15,-5,21,6
1622149426991330,10,4,1,-5,-8,0,-6,5
1622149426999880,-7,-14,-13,-10,10,-6,8,11
1622149426999880,3,8,12,15,-22,10,13,-26
1622149427013852,3,-5,-11,-33,18,11,-34,12
1622149427013852,34,-2,0,15,10,24,7,11
1622149427022440,-38,-12,4,13,2,-20,-31,-61
1622149427022440,7,1,-23,-12,-7,-1,25,13
1622149427037416,-8,7,14,-4,-33,15,6,3
1622149427037416,-7,-14,0,0,-2,-22,0,-10
1622149427037416,3,2,-1,14,28,-4,-47,1
1622149427037416,28,-6,1,-1,-13,10,62,23
1622149427051405,-36,2,-16,-13,-22,-7,30,-22
1622149427051405,9,9,-4,-33,-10,11,-31,36
1622149427059819,14,-3,11,34,16,-6,1,2
1622149427059819,-2,-7,-11,-39,-2,-1,-9,1
1622149427073412,-8,4,-8,5,5,-9,-12,-8
1622149427073412,10,-9,-6,20,-3,-9,9,-1
1622149427089724,-4,-1,10,-8,10,7,-12,7
1622149427089724,-10,2,-14,-9,-19,7,-12,-8
1622149427096888,5,3,12,9,0,6,12,2
1622149427096888,-5,-17,-8,3,-12,-2,-25,-8
1622149427097859,9,13,31,5,8,-25,18,2
1622149427097859,-12,-16,-5,-13,-1,12,6,7
1622149427111770,21,5,-3,3,-1,-14,-10,0
1622149427111770,-26,14,-7,-15,20,9,-4,-5
1622149427119875,5,1,4,8,-16,-8,1,-29
1622149427119875,1,-7,-10,7,11,4,-13,24
1622149427134312,3,1,24,-2,-8,10,9,-5
1622149427134312,-4,-4,-4,-2,-11,-21,-5,-16
1622149427142433,10,-12,-6,4,8,19,33,26
1622149427142433,-8,25,2,-2,-7,-30,-45,-47
1622149427156777,0,-8,-21,-21,4,5,-17,4
1622149427156777,-14,-7,8,1,-20,13,5,5
1622149427164411,0,-7,-13,-6,-13,-19,0,2
1622149427164411,0,-18,-5,-12,8,14,10,3
1622149427171496,-9,16,-12,-10,20,2,16,9
1622149427171496,11,-15,3,2,-11,-26,-6,-24
1622149427179775,0,5,-5,-16,-21,-1,-10,6
1622149427179775,-3,23,10,4,3,11,29,15
1622149427194259,-10,-14,-12,-11,6,-9,-15,-16
1622149427194259,6,10,-5,-18,4,8,16,12
1622149427202336,-11,-14,-14,14,-2,10,-13,-13
1622149427202336,22,-1,4,-16,1,-21,14,14
1622149427216538,-37,-4,1,8,2,-15,-6,-8
1622149427216538,2,1,4,3,-2,5,13,0
1622149427224898,-7,-4,-8,-6,6,-5,-2,3
1622149427224898,7,4,8,12,-10,1,-11,-13
1622149427231426,4,-5,-10,-22,-15,11,-15,6
1622149427231426,7,5,34,40,11,1,31,-5
1622149427246864,-6,5,-8,-6,12,1,-8,2
1622149427246864,-4,-20,-2,-3,-2,6,0,-1
1622149427253844,-2,7,-2,29,16,-3,-37,-11
1622149427253844,0,14,-10,-32,-18,4,17,7
1622149427261895,11,1,3,4,-6,-1,5,16
1622149427261895,-9,-10,-4,46,14,7,1,-30
1622149427275890,12,0,27,-2,3,-13,-19,23
1622149427275890,-5,-3,-7,-8,-25,1,6,-16
1622149427284920,1,0,-5,-2,25,-3,-2,20
1622149427284920,-15,5,-9,-10,-19,8,2,-5
1622149427291745,4,-5,11,10,8,8,3,-5
1622149427291745,1,-3,11,12,3,-17,-16,-1
1622149427299960,17,-3,-1,-1,1,0,6,-6
1622149427299960,-11,13,-5,-15,-2,11,-12,7
1622149427313429,-1,-16,-15,-9,24,-22,6,-13
1622149427313429,5,2,-4,3,0,-3,-14,9
1622149427322438,-1,-7,-3,-4,7,8,18,34
1622149427322438,-2,-3,0,1,-29,-8,-15,-14
1622149427336732,4,-5,-12,-17,-3,11,13,11
1622149427336732,6,-1,7,19,30,4,2,0
1622149427344809,-19,1,-8,14,-18,6,20,-5
1622149427344809,33,-11,-5,-32,8,-25,-34,-16
1622149427368085,-18,4,2,7,-16,-8,18,22
1622149427368085,1,3,14,14,-1,27,-27,-10
1622149427368085,-5,1,-2,-11,-6,-11,-11,-14
1622149427368085,1,-13,-5,-1,8,5,23,0
1622149427374270,0,20,-7,-1,-23,-1,-5,-7
1622149427374270,-6,-6,-17,-32,19,1,-3,-18
1622149427382453,7,1,30,38,-13,11,-17,-7
1622149427382453,-11,4,6,-14,7,-10,-10,5
1622149427405555,1,-5,-6,-12,4,-13,-16,2
1622149427405555,-6,-6,-2,10,2,2,49,30
1622149427405783,6,8,-13,-37,8,6,-18,-19
1622149427405783,7,-9,-11,12,-8,-5,5,10
1622149427419820,-13,-1,16,2,-18,7,33,0
1622149427419820,-9,3,-18,-15,-17,8,-14,13
1622149427419820,17,-3,-8,8,7,-28,-18,-15
1622149427419820,-11,-10,9,1,24,11,9,-7
1622149427433426,18,25,-8,-3,-30,-1,0,14
1622149427433426,-7,-7,-13,-6,-18,11,3,-10
1622149427442397,-10,-7,0,-26,7,-5,13,3
1622149427442397,-23,11,23,51,6,7,-36,0
1622149427456386,19,-10,-2,13,30,3,15,-7
1622149427456386,-10,-6,-5,-37,-17,-18,30,10
1622149427464359,-2,2,-19,-6,18,17,-32,-11
1622149427464359,3,-1,13,5,-31,-22,0,15
1622149427479035,0,-2,6,8,31,5,-13,-13
1622149427479035,17,-8,4,16,-23,-6,-10,6
1622149427479964,-22,-3,-9,-12,18,34,9,-11
1622149427479964,-10,5,-4,-1,-32,-62,14,24
1622149427493819,7,-17,-15,-2,-9,18,-23,-5
1622149427493819,7,19,32,12,18,-5,3,-39
1622149427502404,4,-14,0,-1,-17,8,30,16
1622149427502404,-9,2,-5,10,28,18,10,11
1622149427524950,-3,-13,-9,-16,-14,-12,-7,-12
1622149427524950,-5,-6,-12,-23,9,-10,-6,-8
1622149427525885,4,5,17,52,-17,-19,6,11
1622149427525885,22,7,-2,-37,0,12,-49,-19
1622149427539812,-16,-10,7,40,-15,-5,22,7
1622149427539812,5,2,-13,-12,37,15,5,-3
1622149427539812,19,3,-7,-36,-23,-22,-12,8
1622149427539812,-34,-12,-10,-1,-15,12,7,6
1622149427553802,8,30,-1,-6,12,13,27,0
1622149427553802,-2,-7,3,37,30,-23,-38,-10
1622149427561779,0,-1,-5,-33,-74,7,29,5
1622149427561779,-4,-9,-5,-7,5,-10,2,-18
1622149427576781,2,-14,-5,-13,3,8,-27,-6
1622149427576781,6,2,4,11,-1,2,20,17
1622149427584947,-19,2,23,28,36,-8,-9,-31
1622149427584947,36,4,-10,-9,-24,9,21,3
1622149427599782,-22,0,16,0,2,-11,-18,-5
1622149427599782,0,-7,-10,-40,-24,-2,2,7
1622149427599782,-2,-2,14,61,-8,-6,-16,-14
1622149427599782,1,2,-6,-17,-11,-1,-4,8
1622149427613447,0,-8,-4,-7,34,-13,-22,-8
1622149427613447,-12,8,-4,-12,-36,-12,-10,4
1622149427622448,-3,1,-6,-23,-20,-6,2,7
1622149427622448,-12,7,-2,13,15,10,2,-12
1622149427635902,32,2,-2,-2,-1,1,20,30
1622149427635902,-17,-15,-2,-8,6,14,-20,-17
1622149427644955,-2,1,0,11,-1,-8,13,49
1622149427644955,-2,0,-5,-2,25,3,-14,-11
1622149427659850,0,-11,0,-15,-25,3,8,4
1622149427659850,6,1,-6,26,23,16,19,12
1622149427659850,12,3,1,3,-5,-8,-12,-5
1622149427659850,-13,-4,-1,-17,-14,9,9,3
1622149427674277,-7,-1,-7,-4,10,-11,-3,-7
1622149427674277,-1,-5,0,15,-18,-11,9,-2
1622149427682049,11,14,-3,-15,26,23,-35,-9
1622149427682049,-15,-14,-5,8,-12,-17,25,1
1622149427695889,1,1,2,-4,-4,8,-13,-7
1622149427695889,10,2,20,-1,-13,-15,-19,2
1622149427704936,-7,-17,-12,14,38,20,-4,-12
1622149427704936,4,15,8,-8,-20,-9,19,17
1622149427719379,1,-7,-16,-14,-6,14,-3,3
1622149427719379,4,6,23,36,16,-1,3,-17
1622149427720382,-13,-4,-8,-42,-33,-10,6,24
1622149427720382,16,-9,-7,-8,15,-5,-1,1
1622149427733783,-6,3,10,50,21,18,16,10
1622149427733783,10,-3,-8,-15,-31,-14,-14,5
1622149427741761,-21,7,-12,-12,11,-14,-16,-27
1622149427741761,16,-5,3,-4,29,21,5,12
1622149427756697,-25,-8,-8,0,-48,-2,65,1
1622149427756697,32,30,10,-2,16,-14,-68,-8
1622149427764800,-16,-9,-3,-6,-6,-10,1,-11
1622149427764800,18,4,12,16,21,10,16,9
1622149427779681,-1,-1,-1,14,17,8,-26,-24
1622149427779681,-22,-10,-11,-21,-20,11,54,29
1622149427780681,15,-8,2,-2,-6,-13,-8,-2
1622149427780681,-10,-3,-14,-7,-4,1,-12,-2
1622149427794342,6,7,6,9,-2,-25,-22,9
1622149427794342,-5,-8,0,20,25,17,4,4
1622149427802420,9,1,4,-4,-12,11,31,0
1622149427802420,-17,7,3,3,-1,2,-25,-3
1622149427816840,1,-4,13,-7,-13,-7,-1,-4
1622149427816840,-15,-1,-7,1,1,20,32,-9
1622149427824944,2,-2,-1,7,10,-14,-67,3
1622149427824944,-9,-1,-9,13,-19,-9,12,-14
1622149427839906,9,-12,-9,-32,-26,13,-25,-8
1622149427839906,1,5,6,11,10,-8,20,17
1622149427839906,-30,-3,-6,3,-7,5,20,-17
1622149427839906,11,2,-3,-22,14,-23,-10,8
1622149427853858,1,15,5,16,18,4,-3,-4
1622149427853858,7,-12,-7,-18,-39,-21,-21,-7
1622149427862372,1,-2,-17,-13,-3,-3,10,5
1622149427862372,0,-6,24,37,6,11,-3,-4
1622149427876693,0,3,-5,-21,3,1,7,13
1622149427876693,-5,8,-5,10,12,-2,-27,-10
1622149427884394,9,-11,13,14,3,-2,9,6
1622149427884394,-11,3,-11,-29,-5,-10,-2,-3
1622149427899356,11,-2,-7,-6,1,-9,13,-8
1622149427899356,7,-15,-4,-1,7,15,31,-3
1622149427900330,-23,11,-2,12,9,-23,-66,-5
1622149427900330,-2,1,-2,0,-8,16,20,-13
1622149427913296,2,-1,4,-4,13,-2,-4,2
1622149427913296,-7,-13,-12,-13,-27,-2,-11,-7
1622149427921973,18,11,-1,4,7,2,31,-2
1622149427921973,-1,7,-2,-24,-6,-7,5,2
1622149427936848,-6,6,9,18,3,-4,-19,15
1622149427936848,-6,3,23,30,34,7,-32,-23
1622149427944762,15,-7,-11,-15,-15,9,30,-7
1622149427944762,-4,-6,-9,-8,-35,-9,-6,-19
1622149427959894,1,12,0,-17,3,-3,20,12
1622149427959894,10,-7,-17,-4,-2,0,-19,1
1622149427959894,-6,5,15,1,36,-5,17,33
1622149427959894,-8,-16,-6,1,1,37,-41,-31
1622149427974314,0,-5,5,11,-55,-45,7,-12
1622149427974314,-5,1,-13,-27,5,-4,-5,-3
1622149427982454,-4,-12,0,-3,9,23,-9,-1
1622149427982454,6,15,26,18,10,-2,32,4
1622149427995863,-2,-12,-12,14,9,33,-16,10
1622149427995863,2,12,-7,-23,-2,-33,-7,-16
1622149428003934,-10,-19,-7,-12,-1,21,15,-9
1622149428003934,5,23,34,14,1,-37,-12,5
1622149428019883,-7,-2,-5,-9,-15,5,3,6
1622149428019883,1,-5,-6,-4,2,-1,10,2
1622149428019883,-6,-6,-19,-4,-1,20,-1,-11
1622149428019883,13,-5,-2,5,17,2,21,12
1622149428034320,-22,-2,-3,-2,-2,-5,-51,-37
1622149428034320,-6,-3,17,12,-12,-22,-22,2
1622149428042301,3,5,-3,1,-30,-6,16,0
1622149428042301,-3,-15,-6,15,6,21,-3,2
1622149428056825,4,1,-2,-30,20,-7,18,16
1622149428056825,-4,-4,-18,3,-3,11,5,-1
1622149428064414,8,-3,13,-19,5,-9,-21,-16
1622149428064414,-3,8,-4,31,2,4,10,9
1622149428079518,0,-14,-7,-3,19,-4,7,-12
1622149428079518,7,15,-5,-16,0,16,17,33
1622149428080516,-14,3,0,8,-22,-32,4,-3
1622149428080516,0,-10,-3,-1,4,8,-8,6
1622149428094323,5,6,12,10,32,16,6,-30
1622149428094323,15,-12,-4,-3,-33,-12,-16,-9
1622149428109871,7,-2,-9,-9,18,11,-14,2
1622149428109871,-32,-12,-4,2,-2,-38,4,5
1622149428116743,0,6,-4,6,0,-12,-14,-1
1622149428116743,-10,-8,0,-7,9,6,1,-14
1622149428124971,32,8,4,3,0,8,14,5
1622149428124971,-2,-5,-27,-27,2,-12,-16,-4
1622149428138404,7,-18,12,-2,12,4,44,26
1622149428138404,-9,22,2,20,-5,1,-23,-16
1622149428146870,-2,14,-4,-2,6,-5,12,5
1622149428146870,-5,-3,12,2,10,5,-12,0
1622149428154305,-1,-3,2,-4,-32,-6,0,-13
1622149428154305,-3,-4,-5,-2,19,19,19,5
1622149428162443,1,-1,14,16,10,-23,-20,-6
1622149428162443,5,-2,-15,-20,-12,11,30,13
1622149428176676,-6,3,-15,-4,-9,-5,-39,-10
1622149428176676,9,-2,31,12,-11,-7,19,4
1622149428184662,-24,-4,2,15,10,-14,-19,-7
1622149428184662,-5,0,-4,1,-7,20,13,0
1622149428199725,5,-7,-7,9,-7,-5,-1,3
1622149428199725,-2,6,-16,-32,14,0,6,3
1622149428207536,13,-9,12,26,6,7,35,17
1622149428207536,-8,-3,3,1,-11,-13,-10,-4
1622149428213523,2,9,-7,-3,-18,-9,-29,-40
1622149428213523,0,-7,-9,-4,11,16,-14,14
1622149428222443,-9,0,-7,-6,-34,-14,7,-8
1622149428222443,9,-8,4,-3,27,3,-1,0
1622149428236796,21,6,-1,12,-9,15,-12,-1
1622149428236796,-28,-14,-13,-22,-7,-40,-20,-14
1622149428244777,-5,1,3,7,0,4,53,38
1622149428244777,22,-2,0,-6,1,5,-25,-22
1622149428259057,-7,4,-3,-1,11,-7,8,16
1622149428259057,19,7,9,9,9,3,-27,-1
1622149428267502,-22,-9,-6,-8,-13,18,-13,-11
1622149428267502,3,-9,3,8,-8,-26,-6,-4
1622149428283138,9,22,-11,-43,5,20,23,8
1622149428283138,-5,-17,3,35,-21,-5,35,-2
1622149428283790,3,12,9,3,16,-8,-33,-11
1622149428283790,4,1,-12,-12,16,10,4,4
1622149428295846,-13,-13,-2,-30,-27,-5,0,-6
1622149428295846,20,2,-8,-11,11,20,26,0
1622149428304998,-2,-4,-2,-10,-11,-36,-34,2
1622149428304998,-8,-2,-7,11,-7,1,17,8
1622149428319191,-11,-5,7,3,22,4,12,25
1622149428319191,2,2,-11,-4,-37,2,45,25
1622149428327526,15,-4,-14,-15,-6,-2,-11,-26
1622149428327526,-2,3,-1,-7,0,0,-42,8
1622149428342861,4,-8,-5,15,27,-12,21,-4
1622149428342861,-12,1,6,-8,-21,-21,-17,-26
1622149428343890,8,-5,2,4,6,19,13,-3
1622149428343890,-13,-14,-5,-19,-12,26,-12,-8
1622149428356818,2,22,16,58,4,-3,20,4
1622149428356818,9,0,8,-25,26,-2,-34,-12
1622149428365406,-4,-3,-9,-5,2,14,2,8
1622149428365406,8,-11,10,1,-37,-13,9,-8
1622149428378474,-7,-7,-4,1,13,-5,-15,-8
1622149428378474,13,1,2,1,14,-1,5,11
1622149428387466,-20,-3,-5,10,7,8,-9,-28
1622149428387466,27,1,-5,-10,9,0,13,5
1622149428402438,-37,-1,0,-3,-10,-15,-18,-4
1622149428402438,-10,-3,-3,14,-11,7,32,-11
1622149428408424,7,-2,3,-29,20,-18,-28,18
1622149428408424,-7,9,-11,8,-27,-35,-16,0
1622149428416403,-9,-8,17,3,-8,5,2,-7
1622149428416403,2,4,-12,14,6,18,-6,-14
1622149428425789,-9,-4,17,0,6,16,13,3
1622149428425789,19,4,9,22,-18,-6,-19,-24
1622149428439241,3,-5,-13,-29,16,-19,36,15
1622149428439241,-9,0,1,11,3,-6,-50,29
1622149428447769,8,2,0,-3,-4,0,-1,-53
1622149428447769,-15,-7,-14,3,14,7,-6,11
1622149428461728,8,3,5,5,6,7,15,-8
1622149428461728,9,-1,3,-10,-18,-4,-16,7
1622149428468708,-19,3,6,7,-5,1,6,13
1622149428468708,-20,-4,-5,1,25,-9,17,-3
1622149428476784,12,1,2,-11,-31,-5,-15,1
1622149428476784,-12,-10,-4,31,12,-12,-24,-49
1622149428485721,17,1,-3,-25,-17,18,14,19
1622149428485721,-5,5,-6,-10,3,-2,28,-15
1622149428498718,-2,-19,1,16,7,-14,-26,19
1622149428498718,-6,39,-3,-14,11,12,-2,4
1622149428507661,-1,8,-2,-7,-6,-7,12,11
1622149428507661,18,0,1,0,0,13,26,-11
1622149428521753,-14,-6,-12,-21,-21,-11,-46,-6
1622149428521753,26,-20,0,-1,6,13,29,6
1622149428530467,7,-4,-13,5,-1,-17,-27,-9
1622149428530467,-35,11,21,-4,8,-14,-1,18
1622149428536476,4,-8,5,37,36,11,-8,-9
1622149428536476,-6,-3,12,-3,-59,-16,21,6
1622149428545424,13,-4,-1,-19,8,9,30,9
1622149428545424,16,5,-1,26,14,9,-76,3
1622149428558418,-13,3,-5,-12,-9,-10,10,8
1622149428558418,-16,-8,-6,-8,16,13,38,-25
1622149428567612,-2,-12,17,19,11,-10,3,26
1622149428567612,-3,29,2,-7,-17,2,1,-9
1622149428581419,11,2,-8,-10,13,25,33,23
1622149428581419,-7,3,-2,0,5,-25,-28,11
1622149428591422,-10,-9,-1,23,-30,12,9,-11
1622149428591422,1,-9,4,-21,14,-10,-10,0
1622149428596444,3,3,-7,3,-4,13,10,6
1622149428596444,20,-4,-7,0,-14,-1,9,1
1622149428605416,-15,-5,-3,-1,22,-7,-12,-6
1622149428605416,14,4,5,9,-37,10,24,12
1622149428618372,0,3,-6,-20,4,-9,-2,-3
1622149428618372,-1,-6,1,8,-6,-2,-10,5
1622149428627459,-5,-1,-18,-7,-2,-3,-21,-14
1622149428627459,-3,-7,-4,-13,-1,-4,8,5
1622149428641536,-1,18,13,31,17,7,20,-12
1622149428641536,-12,-1,-3,-8,-7,6,-37,-3
1622149428650484,-7,-1,-26,-15,-10,-15,-4,-7
1622149428650484,-6,-18,42,15,-4,15,-3,5
1622149428656493,6,3,-2,17,9,-1,-14,-38
1622149428656493,-20,-3,1,14,23,-16,18,36
1622149428665640,2,14,-15,-22,-46,19,5,-20
1622149428665640,15,-10,-20,-13,13,-14,-3,5
1622149428678499,-4,-7,7,2,-25,-2,-22,-3
1622149428678499,-9,-1,5,12,30,7,-1,4
1622149428687513,17,2,-4,-10,2,-10,2,-9
1622149428687513,-26,0,-16,-2,-14,20,33,-2
1622149428701443,7,-1,-1,-46,-31,-22,1,-3
1622149428701443,6,-9,-2,18,1,-2,9,-10
1622149428710418,3,18,14,27,-7,0,-23,9
1622149428710418,-9,1,8,-2,48,26,27,11
1622149428715855,1,-5,-12,-13,-52,-4,-34,-60
1622149428715855,-3,-4,-9,-34,5,-44,-12,-9
1622149428725832,-14,-15,5,19,13,1,-2,49
1622149428725832,7,24,-6,-10,9,-4,11,3
1622149428739267,2,-5,-1,20,-18,20,23,15
1622149428739267,-1,-9,-15,-35,16,-4,-29,2
1622149428753767,3,3,10,-7,-25,-3,-4,-24
1622149428753767,1,-2,-11,0,26,-1,2,-5
1622149428761831,-14,-12,-3,-24,-26,-14,12,28
1622149428761831,36,-7,9,21,-20,26,7,-10
1622149428770839,-31,-9,-6,2,41,-2,8,7
1622149428770839,3,0,1,-6,-52,17,-26,22
1622149428776838,-7,-7,-3,-7,17,-10,-5,-52
1622149428776838,-17,6,-10,-10,-21,15,1,-8
1622149428784987,4,8,16,3,-3,-27,1,8
1622149428784987,28,-5,-2,12,4,-11,11,-13
1622149428798883,-14,-9,11,-16,27,9,-21,29
1622149428798883,0,23,-7,2,-13,-7,25,12
1622149428807517,8,-15,-8,-1,2,10,-25,-19
1622149428807517,-13,5,-4,-11,-36,-25,-5,-8
1622149428821842,12,-6,-14,11,47,29,-18,2
1622149428821842,-3,-16,21,-7,-31,-8,16,0
1622149428830383,-20,9,-8,13,-6,15,-16,-4
1622149428830383,-12,-10,-6,-4,21,-5,11,-7
1622149428844840,29,3,0,-5,-11,16,25,40
1622149428844840,-16,-13,7,-3,8,5,-14,-19
1622149428846817,-14,2,-6,10,22,-14,-29,-8
1622149428846817,15,-2,12,3,-25,-14,4,0
1622149428858776,-13,3,-3,5,15,7,3,9
1622149428858776,-7,9,3,-6,23,1,-9,-6
1622149428875846,11,-8,-11,-11,-38,-24,27,-5
1622149428875846,-5,-13,-4,4,-5,-10,-38,-17
1622149428881804,4,28,23,10,7,-15,-20,-20
1622149428881804,-5,1,-13,-18,14,16,22,18
1622149428890309,12,-5,0,-16,-9,-4,-26,-4
1622149428890309,-1,-11,-14,-22,-27,5,15,12
1622149428895782,1,8,8,49,17,3,-20,-5
1622149428895782,-11,7,4,-4,-6,5,-11,-7
1622149428905861,37,-6,-1,-3,10,1,88,45
1622149428905861,-34,-7,-12,-17,18,-3,-26,-20
1622149428919313,-6,-7,-16,-13,-3,-22,7,6
1622149428919313,1,0,-9,3,-1,0,-15,-13
1622149428927511,4,10,16,26,8,-12,-19,14
1622149428927511,18,-3,-7,-19,17,28,41,-3
1622149428941776,6,-1,14,18,-13,-30,-7,6
1622149428941776,-8,-4,-8,-10,-5,-12,-6,11
1622149428950309,-4,0,6,25,23,17,4,-23
1622149428950309,-10,3,-7,-7,-8,-16,-4,-17
1622149428956876,-2,-12,1,-3,-16,4,-8,11
1622149428956876,22,5,16,5,-3,6,67,58
1622149428965834,-10,-4,-7,-13,-1,1,-75,-59
1622149428965834,-2,1,8,31,20,2,5,3
1622149428978870,6,-4,-2,1,-5,-6,-2,-1
1622149428978870,-28,-12,-4,-7,-8,-16,-8,1
1622149428987836,-8,-12,0,-12,-1,-10,26,3
1622149428987836,-16,5,-4,-4,1,-8,4,2
1622149429001779,14,-9,-18,-19,-38,8,-6,-9
1622149429001779,9,0,17,18,40,-1,30,-9
1622149429010754,9,9,-6,22,-53,-14,-42,-12
1622149429010754,1,4,2,-9,-16,-5,-12,2
1622149429016797,-15,-16,-2,-6,6,6,12,-9
1622149429016797,-4,-5,-5,3,17,5,-2,32
1622149429040854,28,9,6,-1,-13,10,19,-14
1622149429040854,-2,-8,-2,-4,11,-4,-23,-6
1622149429041852,8,12,4,21,8,10,13,9
1622149429041852,11,-4,-6,-12,-6,1,-17,-25
1622149429047835,-38,-12,1,-3,-33,13,52,17
1622149429047835,24,2,-4,7,-5,-13,-15,14
1622149429060914,-20,-2,3,-22,29,8,7,-11
1622149429060914,-12,5,9,44,-7,-1,-19,-21
1622149429070871,-6,1,-23,-35,4,-8,-8,13
1622149429070871,27,4,33,27,24,15,33,-1
1622149429076820,-6,5,4,-6,-17,0,0,-7
1622149429076820,8,-3,-3,22,-11,14,-7,6
1622149429085785,-6,5,-4,-25,23,-11,1,4
1622149429085785,-13,-5,-17,-10,-22,2,-2,-8
1622149429098778,4,0,-7,-13,8,-6,-16,-29
1622149429098778,-3,-1,0,11,12,9,-7,-3
1622149429107524,10,-1,5,16,-9,6,3,2
1622149429107524,-7,1,8,12,26,-2,-2,-5
1622149429121821,2,-1,-14,-12,-24,-20,5,15
1622149429121821,0,3,9,-3,-33,5,-11,-15
1622149429130359,-1,-3,1,-16,45,5,6,3
1622149429130359,-2,0,-11,-4,-16,-3,-9,6
1622149429135896,-4,-1,5,3,-13,1,8,5
1622149429135896,0,-3,-24,-37,-1,-11,-7,-5
1622149429144979,3,-2,4,7,24,6,1,2
1622149429144979,-4,2,8,6,-36,0,-5,4
1622149429159297,-2,-3,-15,-12,25,-1,3,0
1622149429159297,-1,-2,7,1,-15,-9,-7,-13
1622149429167519,2,-1,-1,-8,0,5,2,4
1622149429167519,-5,0,-3,2,-2,-6,-5,0
1622149429181810,-2,-3,-2,4,15,0,9,3
1622149429181810,1,-1,-1,-6,-1,-3,-6,-1
1622149429190883,-1,0,3,1,4,8,2,0
1622149429190883,-4,-3,-5,5,-32,-4,-1,2
1622149429195845,1,-2,-6,-11,-16,-6,-7,-3
1622149429195845,0,0,-2,-7,-4,-12,-5,-2
1622149429205817,2,-1,6,3,7,8,5,1
1622149429205817,-1,2,5,15,34,7,0,0
1622149429219841,-1,-1,-5,-17,-10,8,3,5
1622149429219841,-3,-3,13,36,40,-7,-7,-6
1622149429228455,1,-4,-7,-21,-27,-3,0,1
1622149429228455,1,1,-11,4,1,4,0,2
1622149429241812,0,3,14,13,30,9,5,4
1622149429241812,-1,-2,-17,-35,-44,-11,-3,-3
1622149429250312,1,-1,1,16,4,1,-1,0
1622149429250312,-6,-4,0,4,27,-4,-6,-4
1622149429264901,-1,-4,-9,-9,-20,-7,0,-2
1622149429264901,1,-1,-6,-3,23,2,-2,-2
1622149429267377,2,2,11,16,-7,3,1,1
1622149429267377,0,-1,-8,-29,-23,-3,0,1
1622149429278954,-1,2,9,54,58,5,1,-1
1622149429278954,2,1,1,-23,10,6,2,1
1622149429287575,-3,-2,-6,-21,-4,-5,-1,-1
1622149429287575,-4,-4,0,7,-17,-14,-8,-6
1622149429309852,0,0,-4,9,14,0,1,-1
1622149429309852,2,5,29,37,57,21,7,4
1622149429311850,-1,-2,-12,-60,-90,-25,-7,-4
1622149429311850,-2,-1,-4,-17,44,-3,0,-3
1622149429325682,0,-2,-8,-19,24,-5,-1,1
1622149429325682,-6,-4,-24,-3,-48,-6,-7,-6
1622149429326502,-1,-2,-1,24,55,-5,-1,-5
1622149429326502,0,0,5,14,21,10,2,-2
1622149429339246,-4,-4,-7,-27,-88,-11,-8,-1
1622149429339246,2,2,-3,-14,39,8,3,1
1622149429348197,0,-1,1,4,-20,4,2,-1
1622149429348197,-1,2,2,7,5,1,1,3
1622149429361188,0,0,1,0,24,11,4,3
1622149429361188,0,-3,-4,-10,-48,-15,-3,-5
1622149429370141,-2,-2,-2,-1,15,-7,-7,-3
1622149429370141,-2,-4,3,21,0,3,-1,2
1622149429385006,-6,1,-2,-12,5,-12,-4,-7
1622149429385006,-2,-4,-1,-11,-57,-7,-4,-4
1622149429387891,-1,1,11,35,45,19,6,6
1622149429387891,3,0,0,0,42,3,2,2
1622149429398505,-4,-9,-10,-31,-74,-19,-8,-8
1622149429398505,0,2,-1,2,-18,-3,-1,5
1622149429407567,-1,1,0,18,75,6,1,1
1622149429407567,1,0,-1,-12,-18,-1,-1,-4
1622149429421744,1,-1,3,19,13,2,0,0
1622149429421744,-1,-2,0,4,15,6,1,3
1622149429430366,1,-4,-4,-7,-15,-1,-2,-4
1622149429430366,0,2,3,2,29,9,1,-1
1622149429444352,0,2,5,9,-56,2,2,6
1622149429444352,-1,-5,-5,-7,38,-12,-7,-5
1622149429451329,0,-5,-4,6,12,-2,-3,-6
1622149429451329,-4,-1,-1,-6,8,1,-1,2
1622149429459321,1,-1,1,-2,-7,3,2,0
1622149429459321,2,3,0,6,11,1,1,-6
1622149429467508,0,-1,0,-8,-40,-9,-1,4
1622149429467508,-3,-7,-4,-4,17,-2,-3,4
1622149429481821,0,11,2,4,6,1,0,-5
1622149429481821,-1,-3,0,-1,-19,0,0,-1
1622149429490889,1,5,3,-2,-3,4,0,3
1622149429490889,2,-3,-4,-16,-58,-6,0,-3
1622149429504386,2,-2,5,19,70,4,1,-3
1622149429504386,-3,-6,-10,-16,-23,-6,-6,0
1622149429513022,0,-2,3,10,-7,4,1,1
1622149429513022,2,0,-2,-1,10,-15,-4,-7
1622149429519063,1,0,-4,-13,0,2,2,6
1622149429519063,-2,3,5,12,-5,6,3,6
1622149429527558,-5,-8,-11,-18,-38,-13,-5,-12
1622149429527558,0,3,1,-2,-16,-1,1,-3
1622149429541792,-1,1,3,4,4,7,1,7
1622149429541792,-3,-1,0,-1,12,2,0,-3
1622149429550734,-1,-1,-3,0,-6,-3,-1,-4
1622149429550734,-2,1,0,0,16,6,-3,5
1622149429564385,-3,-5,-2,-1,-44,-7,-2,-1
1622149429564385,0,-2,-5,2,6,-12,-1,-6
1622149429572855,1,2,3,-15,1,3,1,2
1622149429572855,-3,-1,-2,-5,-3,5,0,2
1622149429587863,-2,-5,-3,2,-1,-11,-2,-6
1622149429587863,-2,-1,0,3,4,-4,-2,0
1622149429589836,0,2,2,5,9,6,2,2
1622149429589836,-3,-4,-4,-5,-24,-2,-2,-5
1622149429601805,0,-2,-2,-5,0,-3,-4,-1
1622149429601805,0,2,2,6,-4,7,1,1
1622149429610494,-1,0,-2,3,19,4,-1,1
1622149429610494,-4,-3,0,-6,-26,-10,-3,-4
1622149429624389,0,0,3,8,6,3,0,0
1622149429624389,-1,2,-1,-4,11,3,0,-1
1622149429632588,-3,-2,-3,0,-4,-8,-2,-3
1622149429632588,-1,2,-1,-4,-12,-3,1,1
1622149429638493,0,-1,2,0,6,6,0,-1
1622149429638493,-1,-3,-3,-3,4,-6,-3,-2
1622149429655661,-3,-2,-3,-1,-4,-6,0,1
1622149429655661,0,2,2,0,-10,3,0,0
1622149429661859,-1,0,-1,0,10,0,-2,-3
1622149429661859,-1,-3,-1,-6,-3,-2,0,-1
1622149429670829,-1,0,0,4,-3,4,1,2
1622149429670829,0,-1,-3,-1,-2,3,-2,-4
1622149429685352,-1,-3,-2,-4,-1,-4,-1,-4
1622149429685352,-1,0,1,2,5,3,0,2
1622149429687348,0,-1,-1,1,3,3,0,1
1622149429687348,0,-1,-3,-5,-8,-4,-1,-3
1622149429699339,1,1,2,-1,4,-1,-1,1
1622149429699339,-1,0,1,1,-2,2,-1,0
1622149429708318,0,-3,-2,-2,-2,-1,0,-3
1622149429708318,0,-1,-2,-4,-2,-4,-1,-1
1622149429721827,-1,-1,1,-1,-6,4,1,0
1622149429721827,-1,0,0,-2,0,-1,-1,-1
1622149429729972,0,-2,-1,0,17,-4,-3,-2
1622149429729972,-1,-2,-1,0,-10,0,0,0
1622149429745004,-1,-2,-1,-1,0,0,-1,-1
1622149429745004,0,-2,-3,-2,-3,-4,-2,-3
1622149429750882,0,0,0,2,-3,2,-1,1
1622149429750882,0,1,0,1,2,3,-1,1
1622149429759351,0,0,-1,-1,10,-4,-3,-2
1622149429759351,-2,-3,-1,-1,-8,-1,-1,-2
1622149429767611,-1,-1,0,-1,-8,1,0,1
1622149429767611,0,-1,-3,-2,-3,-4,0,-2
1622149429780960,1,-2,-3,-2,-4,-3,0,-2
1622149429780960,-2,0,0,-1,3,3,1,1
1622149429790873,-1,-2,-1,-1,-2,-1,0,-1
1622149429790873,-1,-1,-2,-2,-2,-3,-1,-4
1622149429805072,-1,0,1,0,0,-1,-1,2
1622149429805072,-1,-1,0,0,-1,0,-1,0
1622149429811058,0,0,-2,-1,-5,-4,0,-3
1622149429811058,-1,0,1,0,1,0,-1,1
1622149429819331,-1,-2,0,1,-4,1,0,1
1622149429819331,-1,-2,-2,-1,5,-2,-2,-3
1622149429827533,-1,-1,0,-2,-8,-1,-2,-2
1622149429827533,0,1,1,2,8,4,-1,2
1622149429849947,1,0,-3,-2,-1,-2,-2,-2
1622149429849947,-1,-2,-4,-4,-4,-4,1,-2
1622149429851915,-1,-1,0,-2,-2,1,0,3
1622149429851915,-1,1,0,-3,0,-1,1,0
1622149429863910,-1,-1,0,-2,-3,-5,-2,-4
1622149429863910,0,-1,1,0,-1,0,-1,0
1622149429872825,-2,1,-1,1,1,3,0,-1
1622149429872825,0,-3,-2,-3,0,-4,-2,-2
1622149429878909,0,0,-2,-1,-2,-1,-1,0
1622149429878909,-1,1,0,0,-1,1,-1,3
1622149429888835,-2,-2,-3,0,3,-2,-1,-1
1622149429888835,1,-2,-1,-1,-1,-4,-2,-3
1622149429901797,-2,-1,-1,1,-1,2,1,0
1622149429901797,-2,0,0,-1,-2,0,1,-1
1622149429910907,0,-2,-2,-3,0,-5,-1,-5
1622149429910907,0,0,-1,-3,0,0,-2,0
1622149429923435,-2,0,0,0,2,3,0,2
1622149429923435,1,-1,-3,-4,-4,-3,-2,-3
1622149429940869,-1,-2,-1,-1,0,-3,0,-1
1622149429940869,-2,-2,1,2,-3,0,1,2
1622149429941866,-1,-2,-1,-1,-1,0,-2,-2
1622149429941866,-2,-2,-1,-2,1,-2,-1,-1
1622149429947776,-3,0,0,0,-1,2,1,0
1622149429947776,-3,0,-1,0,-3,-1,-1,0
1622149429961872,0,-2,-2,-3,-1,-4,0,-2
1622149429961872,0,0,-1,-1,2,1,-1,2
1622149429970810,-1,-1,2,0,-3,1,-1,1
1622149429970810,-2,0,-2,-2,0,-3,-1,-3
1622149429984746,1,-1,-2,-1,-1,-3,-1,-1
1622149429984746,0,0,-1,0,-2,1,0,-2
1622149429992732,-1,-1,-2,-2,0,-2,-1,-3
1622149429992732,-1,-3,-3,-3,-1,-4,-1,-3
1622149429998748,-1,0,0,2,0,2,0,2
1622149429998748,-1,1,1,-2,-1,0,0,1
1622149430007691,2,-1,-4,-3,-1,-4,-2,-3
1622149430007691,-1,-1,0,3,-2,1,-3,0
1622149430021749,-1,-1,0,0,-2,0,-1,-1
1622149430021749,-2,-2,-2,-2,0,-5,-1,-3
1622149430030812,-1,-1,1,-1,-1,0,0,0
1622149430030812,-1,-1,0,-1,-2,1,1,2
1622149430043779,-3,0,0,-1,-1,-2,1,-4
1622149430043779,1,-1,-2,-1,0,-4,-2,-3
1622149430052753,0,-1,0,0,-2,2,-2,1
1622149430052753,0,0,1,1,0,0,0,-2
1622149430058761,-2,-2,-2,-4,0,-4,-3,-3
1622149430058761,-1,0,-1,0,-2,1,0,2
1622149430067713,-1,0,0,-1,-1,1,-1,0
1622149430067713,1,-2,-4,-3,0,-3,-1,-3
1622149430081676,0,-3,-1,0,-1,-1,1,-1
1622149430081676,-1,-2,-1,1,-1,4,1,1
1622149430090654,-1,-1,-3,-2,-1,-2,0,0
1622149430090654,1,-1,-1,-1,-2,-5,0,-1
1622149430103643,-1,-1,0,-1,-1,0,0,1
1622149430103643,-2,-1,-1,-1,-1,-1,-1,1
1622149430112595,-1,0,-4,-2,-1,-2,-2,-4
1622149430112595,-1,1,-1,1,-1,1,-1,1
1622149430119274,0,0,0,0,-2,0,1,0
1622149430119274,0,-1,-2,-2,-2,-5,-3,-2
1622149430127532,-1,-1,-1,0,-2,-1,0,1
1622149430127532,-2,0,-1,0,0,3,-1,-1
1622149430141524,0,-2,-1,-2,-2,-2,-3,-3
1622149430141524,0,-1,-1,-2,0,-1,0,-3
1622149430150475,-1,0,0,2,0,0,1,0
1622149430150475,0,-2,-1,-2,-1,2,-1,1
1622149430163466,-1,-1,-3,-2,-2,-4,1,-3
1622149430163466,-2,-3,-1,-2,-1,2,0,0
1622149430181547,-1,-1,-1,0,-1,1,-2,-1
1622149430181547,0,-1,-2,-1,-1,-3,-2,-4
1622149430181547,0,0,0,-1,-1,1,-1,0
1622149430181547,0,1,2,-1,-2,2,-3,1
1622149430187613,1,-2,-2,0,-1,-2,-1,-2
1622149430187613,2,-2,1,-2,-1,-5,0,-1
1622149430201665,-2,-1,-1,2,-1,2,-1,2
1622149430201665,-1,0,0,0,-1,-1,3,-1
1622149430210913,-1,-2,-2,-2,-3,-5,-2,-3
1622149430210913,-1,-1,-1,-1,-2,1,0,0
1622149430224455,-3,-2,-1,0,0,1,1,-1
1622149430224455,-1,-1,-2,-2,-2,-6,-2,-5
1622149430232419,-1,0,2,2,0,-1,-1,0
1622149430232419,-2,-1,0,0,-1,2,1,2
1622149430247778,1,-2,-2,-3,-1,-3,-1,-1
1622149430247778,-1,-1,-2,-1,-2,-3,-2,-2
1622149430249773,-1,1,0,1,-1,2,1,1
1622149430249773,-2,-1,-1,0,-1,0,-1,-1
1622149430261472,-1,-1,-3,-3,-2,-2,-1,-3
1622149430261472,-1,-3,-1,-1,-1,1,0,0
1622149430270885,-1,0,-1,0,-3,1,2,1
1622149430270885,-1,-2,-2,-1,1,-4,-1,-4
1622149430284385,0,-1,-1,1,-1,-2,-3,0
1622149430284385,-1,-1,0,1,0,1,-1,1
1622149430309774,-2,-2,-3,-3,0,-3,-4,-2
1622149430309774,-2,0,-1,-2,0,-2,0,-2
1622149430311247,0,1,0,-1,0,1,-2,1
1622149430311247,-2,-1,-2,0,-1,-1,-1,-1
1622149430314242,-1,-2,-2,-2,-1,-3,-2,-2
1622149430314242,0,-1,0,-1,-2,2,-1,3
1622149430321846,-1,0,0,1,-1,1,0,1
1622149430321846,0,0,-2,-1,-1,-4,-1,-3
1622149430330511,-1,-2,0,0,-1,1,0,-2
1622149430330511,-1,0,-1,-1,0,2,0,0
1622149430352948,-1,-3,-2,-3,-1,-3,-1,-2
1622149430352948,1,0,-2,-3,0,-4,-1,-1
1622149430353945,0,0,0,1,-1,1,0,0
1622149430353945,-3,-2,-1,-1,-2,-2,0,-1
1622149430368248,-1,-2,-2,-2,-1,-4,0,-4
1622149430368248,0,-1,0,0,-2,1,0,1
1622149430369248,-2,0,-1,-2,-2,-1,-3,-1
1622149430369248,0,0,-4,-2,-1,-5,-2,-2
1622149430381880,0,-1,-1,-1,-1,0,0,1
1622149430381880,-3,1,2,1,-2,1,-1,0
1622149430389903,1,-2,-1,-2,-1,-5,-1,-1
1622149430389903,-1,-2,-2,-2,-1,-4,0,-1
1622149430403874,-1,-1,-1,0,-1,1,-1,2
1622149430403874,0,0,-2,-2,0,1,-1,-1
1622149430420924,-1,1,0,-3,-1,-3,-1,-2
1622149430420924,0,-2,0,3,-1,2,-1,1
1622149430428233,-2,-2,-1,-1,-1,-1,0,-1
1622149430428233,-3,-4,-2,-1,2,-3,-1,-3
1622149430429233,0,0,0,-2,-2,0,-1,-1
1622149430429233,-2,-1,1,0,0,2,0,0
1622149430441474,-2,-1,-3,-1,-1,-3,-2,-1
1622149430441474,0,-1,-1,-1,-1,-4,-2,-2
1622149430450330,-1,-1,0,0,0,1,0,2
1622149430450330,1,-1,0,-1,-1,-2,-2,-1
1622149430464322,0,0,-1,-2,0,-2,-3,-3
1622149430464322,-1,0,0,0,-1,2,-2,2
1622149430473388,0,-1,0,0,-3,0,1,-1
1622149430473388,0,-2,-1,-2,-2,-4,-3,-2
1622149430488145,-2,-1,-2,1,-1,1,0,0
1622149430488145,-2,-1,0,-1,0,1,-1,2
1622149430489148,-1,-2,-2,-3,1,-2,0,-3
1622149430489148,1,-2,-1,-3,-2,-1,-2,-1
1622149430501117,-1,0,2,-1,-2,1,0,1
1622149430501117,0,-1,-2,-2,-1,-1,0,-2
1622149430510092,0,-1,-1,0,1,-3,-2,-4
1622149430510092,-1,0,0,2,-2,2,0,1
1622149430533206,0,-1,-1,-1,-1,1,0,0
1622149430533206,-1,-2,-5,-1,-1,-5,-1,-2
1622149430533793,-2,0,-1,2,-1,1,0,0
1622149430533793,-2,-3,-1,-1,-1,1,0,2
1622149430547802,-1,-2,-1,-2,0,-3,0,-3
1622149430547802,-2,0,0,-1,0,0,-2,0
1622149430549798,-1,3,0,1,-1,1,1,2
1622149430549798,0,-2,-1,-1,-1,-1,-1,-2
1622149430561313,-1,-2,-2,-2,-1,-3,-2,-2
1622149430561313,-1,-2,0,-1,-1,2,1,0
1622149430570869,0,-1,-2,0,0,-1,-2,0
1622149430570869,-1,-1,-2,-1,0,-5,0,-4
1622149430584426,0,1,-1,0,-1,0,-3,0
1622149430584426,-1,0,-1,0,-2,2,-1,1
1622149430592546,1,-2,-2,-3,-1,-2,-2,-2
1622149430592546,-1,-1,-2,-1,-1,0,-1,-1
1622149430608228,-2,-1,-1,0,0,1,1,3
1622149430608228,-1,1,0,0,-1,-1,-2,-1
1622149430609228,-1,-2,-1,-3,2,-2,-2,-3
1622149430609228,-1,-1,1,0,-1,3,-2,2
1622149430621894,0,-3,-1,-1,-1,0,-1,-1
1622149430621894,1,-2,-3,-2,0,-4,-2,-3
1622149430630332,-2,-1,0,1,-3,1,1,1
1622149430630332,-1,-1,-1,1,0,2,0,0
1622149430644373,-1,-2,-2,-3,0,-3,0,-3
1622149430644373,0,-1,1,0,0,-1,-1,-1
1622149430653437,0,0,0,2,-1,2,0,1
1622149430653437,0,0,-1,-2,0,-2,-2,-2
1622149430667548,1,-2,-2,-2,0,-2,-2,-1
1622149430667548,-1,0,0,1,-1,0,0,0
1622149430669469,-1,-1,0,0,-2,0,0,-2
1622149430669469,0,-1,-3,-1,-1,-5,0,-4
1622149430681426,-2,-1,1,2,-1,1,-1,1
1622149430681426,-1,0,0,-1,-1,2,-1,1
1622149430696384,-1,-2,-3,-5,1,-3,-1,-3
1622149430696384,-1,0,0,0,1,-1,-1,0
1622149430703989,0,-2,1,0,-1,2,0,1
1622149430703989,0,-2,-3,0,-1,-3,0,-1
1622149430713343,-1,0,-2,-3,-2,-2,-1,-2
1622149430713343,1,1,1,0,-1,3,1,1
1622149430728239,-1,0,-2,-2,0,-1,0,-2
1622149430728239,-3,0,-2,-2,0,-4,-1,-2
1622149430729239,-2,-1,0,-2,-2,0,-1,1
1622149430729239,-2,0,-1,0,-1,1,-1,0
1622149430741841,-1,0,-5,-2,-2,-3,-1,-1
1622149430741841,0,-2,-3,0,-1,1,-1,0
1622149430750311,-1,-1,-1,1,-1,2,-1,1
1622149430750311,0,-1,0,-1,1,-3,0,-3
1622149430764389,0,-2,0,-1,0,-3,-1,-2
1622149430764389,-1,-1,-1,0,1,2,0,-1
1622149430772565,-1,0,-1,0,-1,-1,-2,-1
1622149430772565,0,-3,-3,-2,-1,-4,-2,-3
1622149430788249,-1,-1,-1,-1,0,1,-1,1
1622149430788249,0,-2,-1,-2,-3,1,0,2
1622149430790245,1,-2,-3,-1,0,-3,0,0
1622149430790245,-1,-2,0,0,0,0,1,0
1622149430801872,-2,0,0,0,-1,1,-1,0
1622149430801872,-2,-2,-2,-4,-1,-2,-1,-1
1622149430817601,-1,-2,-2,-3,-1,-3,-1,-1
1622149430817601,-1,-1,-2,-1,-1,3,0,1
1622149430823528,-3,0,0,-2,-1,0,0,-1
1622149430823528,-1,-3,0,-1,-2,-4,-2,-5
1622149430832470,-2,-1,0,0,-2,1,0,1
1622149430832470,-2,1,-1,-1,-2,-1,-2,2
1622149430847395,-1,-1,-1,-1,1,-3,-2,-3
1622149430847395,-1,-1,-1,0,-3,0,-1,0
1622149430849365,-1,-2,0,0,-1,2,0,-1
1622149430849365,-1,-1,-2,-3,-1,-3,-2,-2
1622149430861900,2,-1,-2,0,-1,-3,0,-1
1622149430861900,-1,0,-1,1,-1,0,-2,1
1622149430870544,0,-1,-1,-1,0,-1,-2,-2
1622149430870544,0,-2,-5,-2,-1,-5,0,-2
1622149430883888,-1,0,1,1,-2,1,0,0
1622149430883888,-2,-1,1,-2,-1,0,0,0
1622149430892482,-1,-3,-2,-2,0,-3,-3,-3
1622149430892482,-3,0,-1,1,0,0,0,1
1622149430908245,-2,-2,1,0,-1,0,0,2
1622149430908245,-1,-2,-4,-1,0,-2,-1,-2
1622149430909244,-1,-2,0,-1,-1,-4,-1,-3
1622149430909244,-1,1,0,-1,-1,2,2,-1
1622149430921882,0,0,-2,-1,-1,-1,0,-2
1622149430921882,-1,0,-2,-2,2,-4,0,-3
1622149430930241,-1,0,-1,1,0,1,-1,1
1622149430930241,0,-2,1,1,-2,-1,0,0
1622149430944411,-2,-3,-1,0,-2,-5,-2,-3
1622149430944411,0,0,-1,0,-1,-1,0,-1
1622149430953443,-2,2,1,-2,-1,1,1,3
1622149430953443,0,-2,-1,-4,-1,-3,1,-2
1622149430967342,0,-1,-1,-2,-1,-3,-1,-3
1622149430967342,0,0,1,2,0,2,0,1
1622149430982544,-2,-3,-2,-1,-2,1,-1,-1
1622149430982544,-1,-3,-1,-2,-2,-2,-3,-1
1622149430982544,-2,-1,-1,-1,0,1,-2,-1
1622149430982544,-1,-1,-1,0,0,1,0,1
1622149430990963,-1,-1,-2,-4,0,-5,-1,-4
1622149430990963,0,0,-1,2,-1,0,-1,0
1622149431004364,0,-1,-2,0,-2,2,-1,1
1622149431004364,-1,-2,0,-2,-1,-2,0,-3
1622149431013055,-1,-1,-1,0,0,-2,-1,0
1622149431013055,-2,0,2,0,-2,2,-1,1
1622149431027605,-2,0,-1,0,0,-1,-2,1
1622149431027605,0,0,-2,-2,0,-5,-2,-4
1622149431034381,0,-1,0,1,-1,1,0,1
1622149431034381,-1,-1,0,0,-3,-1,1,-1
1622149431041388,-1,-1,-4,-2,0,-5,-1,-4
1622149431041388,-2,-1,0,1,-2,0,0,1
1622149431050870,0,0,0,1,-1,2,1,1
1622149431050870,0,-1,-1,-3,1,-2,-2,-3
1622149431064087,0,-2,-2,-1,0,-1,-2,-2
1622149431064087,0,-2,-1,-1,0,2,-1,0
1622149431080011,0,-2,-3,-1,-2,-2,0,-3
1622149431080011,-1,-1,-2,-1,0,-4,-2,-2
1622149431086947,-1,-1,0,-3,-1,-1,0,3
1622149431086947,-2,-1,0,1,-1,0,-1,0
1622149431095047,-1,-1,-3,-1,-2,-3,-2,-3
1622149431095047,-2,-2,-2,0,-2,0,-1,-1
1622149431101897,0,0,0,1,-1,1,2,1
1622149431101897,0,-1,-1,-4,-2,-3,0,-2
1622149431110900,-2,0,-1,-1,0,-1,-1,-2
1622149431110900,-2,-1,-1,-1,0,1,-1,1
1622149431132394,-1,-2,-1,-1,1,-1,0,1
1622149431132394,-2,-2,-3,-4,0,-4,-2,-4
1622149431134393,-1,-2,1,1,-1,-2,-1,1
1622149431134393,-2,-1,0,0,-1,1,1,1
1622149431146894,-2,-4,-3,-3,-1,-3,-1,-4
1622149431146894,-1,-1,-1,-1,-3,-1,-1,1
1622149431153877,1,0,-2,-1,-1,2,-1,2
1622149431153877,0,-2,-2,-2,-1,-2,-1,-3
1622149431169838,0,-1,-1,-1,-2,-2,0,-4
1622149431169838,-3,0,0,0,-1,2,0,0
1622149431171836,-1,0,-1,-2,-3,-1,0,-1
1622149431171836,0,-3,-3,-2,-2,-4,-2,-4
1622149431184402,-2,-1,0,0,0,1,-1,1
1622149431184402,1,-2,-1,0,-2,-1,-1,0
1622149431192410,2,0,-1,-2,0,-3,-2,-2
1622149431192410,0,0,1,0,0,-1,-2,0
1622149431207582,0,-1,1,-1,-1,2,0,2
1622149431207582,-2,-2,-4,-1,0,-2,0,-1
1622149431221877,-3,-3,-3,-3,-2,-2,-2,-2
1622149431221877,0,-1,-2,0,-1,2,0,0
1622149431230421,-2,1,-1,-1,-1,-1,-1,-2
1622149431230421,-1,-2,0,-4,2,-4,-2,-4
1622149431231419,-3,-1,-1,2,1,2,0,0
1622149431231419,-1,0,-1,-1,0,1,-1,1
1622149431244402,-1,0,-2,-1,0,-5,-1,-3
1622149431244402,-1,-2,-2,1,-2,-1,-1,-2
1622149431253410,-1,-2,1,0,-1,0,1,1
1622149431253410,-2,-1,-3,-2,-2,-1,-1,-2
1622149431267602,-2,-2,-2,-2,1,-2,-2,-1
1622149431267602,-2,0,1,-1,-2,2,0,1
1622149431273771,0,1,-1,0,-2,0,0,-1
1622149431273771,-1,-2,-3,-1,0,-4,-2,-2
1622149431289852,0,-1,-1,2,-2,0,-1,0
1622149431289852,0,-1,2,1,1,0,2,1
1622149431291822,0,-1,-2,-2,-1,-3,-2,-2
1622149431291822,-1,0,0,-1,0,-4,-1,-2
1622149431303885,0,1,0,2,0,3,0,2
1622149431303885,-2,-1,-3,-3,0,-2,-1,-3
1622149431312869,-2,0,-2,-2,-1,-2,-1,-3
1622149431312869,0,0,0,1,-1,1,1,1
1622149431327633,-1,0,-2,-2,-1,-1,-1,-1
1622149431327633,-1,-1,-2,-2,0,-4,-2,-3
1622149431333525,0,-2,2,0,0,3,-1,1
1622149431333525,-1,-1,-2,0,-1,2,0,1
1622149431350654,-2,-1,-1,-2,-1,-3,-3,-4
1622149431350654,0,-1,1,0,-2,1,-1,2
1622149431351653,0,0,0,0,0,1,-1,0
1622149431351653,0,-1,-1,-2,-1,-5,-2,-4
1622149431364181,0,-3,-2,-3,-2,-1,-1,0
1622149431364181,0,0,1,0,-1,3,-1,1
1622149431373378,-2,-1,-2,-1,-1,-2,-1,-2
1622149431373378,-1,-5,-3,-1,-1,-5,-1,0
1622149431387495,-1,0,1,-1,1,2,-1,1
1622149431387495,1,1,0,0,0,-2,0,0
1622149431393487,-2,-4,-2,-3,0,-4,-2,-4
1622149431393487,-1,-1,0,-1,-2,2,0,-1
1622149431410464,-1,0,-1,1,-2,1,0,0
1622149431410464,-2,-3,-1,-1,-1,-5,0,-1
1622149431411435,0,-1,0,-1,-2,-1,-1,-2
1622149431411435,-1,-1,0,1,1,1,2,0
1622149431424429,-1,-2,-1,-1,-1,-3,-1,-1
1622149431424429,0,0,-2,-2,-2,-2,-2,-3
1622149431433410,-2,0,1,1,-2,2,0,2
1622149431433410,-2,1,1,-2,-1,2,-3,-1
1622149431447397,0,-3,-2,-2,-2,-3,0,-4
1622149431447397,-2,0,-2,-1,0,0,-1,0
1622149431454374,0,-2,0,1,-1,1,-1,1
1622149431454374,0,-1,-2,-4,-2,-4,-1,-3
1622149431469840,0,-1,2,0,-1,-1,-2,2
1622149431469840,-1,1,1,0,0,3,-1,1
1622149431471892,1,-1,-1,-2,-1,-3,0,-1
1622149431471892,-2,-2,-2,0,0,-2,-1,-1
1622149431484404,-1,0,1,-1,-3,1,0,0
1622149431484404,-1,-3,-1,1,-1,-2,-1,-1
1622149431493395,-2,-1,-3,-1,-1,-5,-1,-3
1622149431493395,-1,-1,2,0,-1,2,0,1
1622149431506959,-1,1,1,0,-2,-1,0,-1
1622149431506959,-1,-1,-1,-2,-1,-3,-2,-4
1622149431515331,-1,-1,-1,-2,-2,0,0,-1
1622149431515331,-1,-1,1,1,0,2,2,3
1622149431529412,-1,-1,-4,-2,0,-2,-2,-3
1622149431529412,1,-1,0,-1,-2,-1,0,-2
1622149431536415,0,-1,1,2,-1,1,-2,1
1622149431536415,-2,-1,-1,-2,-2,-1,0,-4
1622149431543903,0,-1,-3,-1,1,-4,0,-4
1622149431543903,0,-1,-1,0,-1,4,1,1
1622149431552880,-1,-1,-1,-1,0,1,0,1
1622149431552880,0,-2,-3,-3,-1,-7,-4,-4
1622149431566899,-2,-2,-2,0,-1,1,-1,1
1622149431566899,-1,1,0,0,-2,2,-1,0
1622149431575848,1,0,-2,-2,-2,-4,-1,-3
1622149431575848,0,-1,-2,-2,1,0,0,0
1622149431597812,0,0,0,0,0,2,-1,2
1622149431597812,-2,-1,-1,-2,-1,-2,0,-1
1622149431599799,1,-1,-2,-3,2,-4,-1,-4
1622149431599799,-2,0,0,1,0,0,0,-1
1622149431603789,-2,-2,-1,-1,-1,-1,0,-2
1622149431603789,-4,0,-2,-3,0,-4,-2,-5
1622149431612874,0,-2,-1,1,-1,0,-1,-1
1622149431612874,0,-1,1,0,0,2,-1,1
1622149431626934,0,0,-2,-3,0,-5,-2,-4
1622149431626934,2,-2,-2,-2,-2,-3,-1,-1
1622149431635912,-2,-2,-2,1,-2,2,0,1
1622149431635912,-2,-1,-1,-2,-3,-4,-3,-4
1622149431658278,-2,-2,-2,-1,-1,-4,-3,-4
1622149431658278,-2,1,2,1,-1,2,-2,1
1622149431659278,-1,1,1,-2,-1,1,0,1
1622149431659278,0,-1,-3,-3,-1,-4,-2,-3
1622149431664292,-2,-1,2,-1,0,3,0,1
1622149431664292,-1,-1,0,-2,0,0,1,1
1622149431672595,-1,-1,-2,-2,-2,-4,-2,-3
1622149431672595,-1,-2,0,1,1,0,-2,-2
1622149431686994,0,-3,-2,-1,-1,1,0,1
1622149431686994,-1,-1,-3,-1,-1,-1,-3,-1
1622149431695278,-2,-3,-1,-3,0,-5,-2,-3
1622149431695278,0,2,1,2,-1,2,1,1
1622149431709871,0,1,-1,0,0,0,1,2
1622149431709871,0,-3,-3,-3,1,-3,-1,-5
1622149431712281,-2,-1,-2,0,0,-1,-2,0
1622149431712281,-2,1,0,0,0,1,0,1
1622149431724470,0,-1,-1,-4,-1,-3,0,-3
1622149431724470,1,1,-3,-1,-3,-3,-1,0
1622149431740003,-1,-1,1,1,-2,4,0,2
1622149431740003,1,-2,-1,0,-1,-2,-2,-1
1622149431746012,-1,-3,-3,-1,-1,-3,-3,-2
1622149431746012,-1,0,0,2,0,1,-2,2
1622149431755961,1,0,-1,-2,-2,0,-1,1
1622149431755961,-3,-2,-2,-2,-2,-4,-2,-4
1622149431778289,-1,-2,-1,1,0,1,0,0
1622149431778289,-3,-1,-1,1,-1,1,1,1
1622149431779079,-2,-1,-2,-2,-1,-3,-3,-2
1622149431779079,1,1,0,-1,-2,-2,0,-1
1622149431784458,-1,1,0,1,-2,1,0,1
1622149431784458,0,-3,-1,-4,-1,-1,0,-3
1622149431792536,-2,-2,-1,-1,0,-3,0,-5
1622149431792536,-1,0,0,1,-1,1,0,2
1622149431806668,-3,-2,0,0,-1,0,-3,-1
1622149431806668,-1,-2,-2,-1,-1,-4,-4,-5
1622149431815784,-2,-1,-1,0,-1,0,-1,0
1622149431815784,0,-2,0,-1,-1,4,-2,0
1622149431829938,0,-2,-2,-2,-1,-3,-2,-3
1622149431829938,0,-3,-2,0,1,-1,0,-1
1622149431831932,0,1,0,-1,-3,1,1,1
1622149431831932,0,0,-2,-3,-3,-2,-1,-2
1622149431843946,-1,0,-3,-2,0,-4,0,-2
1622149431843946,0,1,3,2,-1,1,1,3
1622149431852928,0,0,-1,0,0,1,-3,0
1622149431852928,-1,-5,-3,-3,-1,-3,0,-3
1622149431866920,-2,-3,-2,0,-2,1,1,0
1622149431866920,-2,-2,-2,-1,-1,4,1,-1
1622149431875849,-2,-2,-2,-2,1,-3,-3,-3
1622149431875849,-1,1,0,1,0,-1,0,-2
1622149431889841,0,0,1,0,-1,1,-1,2
1622149431889841,-2,-1,-2,-3,-1,-3,0,-3
1622149431897822,0,-1,-3,-2,-2,-3,0,-4
1622149431897822,-2,0,1,0,1,2,0,2
1622149431904459,0,-1,-3,-1,-2,1,0,0
1622149431904459,0,-1,-1,-3,0,-5,-1,-3
1622149431912440,-1,0,-1,1,1,1,1,2
1622149431912440,-2,1,0,-1,-1,0,0,1
1622149431926948,-1,-1,-3,-4,0,-4,-1,-4
1622149431926948,0,1,-1,1,0,0,-3,-1
1622149431935781,0,-3,0,-1,-3,2,2,2
1622149431935781,-2,-2,-2,-1,-1,-3,-1,-2
1622149431949916,3,-2,-1,-2,1,-3,-1,-1
1622149431949916,-3,1,0,0,-1,2,-1,1
1622149431956580,-3,-2,-2,0,0,-1,0,1
1622149431956580,-1,-2,-2,-3,0,-4,-2,-2
1622149431964440,-1,0,1,1,0,2,0,0
1622149431964440,1,0,0,-1,-1,1,1,0
1622149431972852,-2,-1,-2,-2,-1,-3,-1,-3
1622149431972852,0,-1,-1,-1,0,-1,-1,-1
1622149431986906,-2,0,2,0,-2,3,0,1
1622149431986906,0,-4,-2,-3,-2,-5,1,-4
1622149431995785,-1,-1,-3,-1,1,-3,0,-1
1622149431995785,-1,-1,-1,0,0,1,0,0
1622149432018291,-2,0,-1,-2,-1,-1,-1,-2
1622149432018291,0,-2,-3,-2,1,-3,-1,-3
1622149432019292,0,-1,1,-1,-2,2,-1,-1
1622149432019292,-1,-2,1,0,-3,0,0,0
1622149432024440,-3,-2,-4,-2,-1,-6,-3,-4
1622149432024440,-2,-1,-1,-2,-1,0,-2,-1
1622149432033389,-1,1,1,0,-3,3,0,2
1622149432033389,-1,0,-2,-3,1,-4,-1,-3
1622149432055660,0,-1,-1,-2,-1,-2,-1,-2
1622149432055660,-1,-1,0,3,0,1,1,3
1622149432056634,0,-1,-1,-2,-1,-3,-2,-3
1622149432056634,2,-2,-2,-4,-1,-6,-3,-2
1622149432069881,-1,-1,2,-1,0,6,0,3
1622149432069881,-4,0,1,0,-1,2,0,1
1622149432076981,-2,-3,-4,-2,-1,-8,-2,-3
1622149432076981,1,-2,2,0,-1,0,1,0
1622149432093323,-1,-1,-1,1,-3,1,-1,2
1622149432093323,-2,-2,-2,-3,0,-3,-2,-2
1622149432095824,-1,-1,-2,0,0,-1,-1,-2
1622149432095824,-1,0,0,1,0,4,0,1
1622149432106954,-2,-2,-3,-1,-1,-1,1,-2
1622149432106954,0,-2,-2,-3,-3,-8,-3,-4
1622149432115850,-1,0,0,1,-1,3,0,1
1622149432115850,-2,0,-1,-1,-3,0,0,0
1622149432129158,1,-1,-3,-3,2,-2,-1,-3
1622149432129158,-2,-1,0,0,-2,-1,0,0
1622149432136154,1,1,1,-1,0,-1,-1,1
1622149432136154,-1,-1,-3,-2,-2,-2,-1,-4
1622149432152638,0,0,-1,0,4,-1,-3,0
1622149432152638,-3,0,1,1,-1,1,1,2
1622149432154536,-2,-2,0,-1,0,0,-1,-1
1622149432154536,-3,-3,-3,-1,0,-4,-1,-3
1622149432166959,-1,-1,0,2,-4,-2,0,1
1622149432166959,2,0,-1,0,-2,0,-1,1
1622149432175988,-2,-1,-2,-4,1,-4,-2,-4
1622149432175988,0,0,-1,0,0,-1,-1,-2
1622149432189858,-1,-1,0,-1,-1,-1,-1,1
1622149432189858,0,-1,-1,-2,-1,-1,-2,-2
1622149432196867,-1,-2,-2,-2,-2,-2,1,-1
1622149432196867,-2,0,0,1,-1,0,0,3
1622149432213015,-2,1,0,-3,-2,-1,-1,-2
1622149432213015,3,-1,-2,-3,2,-2,-2,-4
1622149432214011,-3,0,-2,0,-1,2,0,3
1622149432214011,-2,0,1,1,-2,1,0,1
1622149432243299,-2,-2,-2,-3,-3,-4,-2,-4
1622149432243299,0,1,0,0,-2,1,-1,1
1622149432244126,2,2,0,2,-3,0,-1,0
1622149432244126,-2,-2,-3,-2,0,-1,-2,-2
1622149432249140,0,-1,-2,-1,-1,-1,-1,0
1622149432249140,-2,-1,2,-1,-1,0,-1,1
1622149432256991,-1,-1,0,-2,-1,0,0,-2
1622149432256991,-1,-1,-2,-1,-1,-4,1,-3
1622149432273312,-1,0,-1,3,-1,1,-2,-1
1622149432273312,-2,-1,-1,-1,0,1,1,-1
1622149432274189,1,-2,-1,-3,-1,-5,-2,-4
1622149432274189,1,0,1,-2,-3,1,0,-1
1622149432295140,-3,-2,1,1,-2,2,1,0
1622149432295140,0,-1,-3,-2,0,-2,-2,-2
1622149432298155,-3,-1,-2,-1,0,-2,-1,-2
1622149432298155,-3,-2,-1,1,0,2,-2,1
1622149432309874,-1,1,1,-4,-1,-2,0,-3
1622149432309874,-2,-2,-2,-1,-1,-2,-1,-3
1622149432317001,1,0,1,-1,-1,-1,0,3
1622149432317001,1,-1,-1,-1,0,2,-1,-1
1622149432333043,-2,-2,-2,-2,-2,-5,-1,-4
1622149432333043,0,-2,-1,0,-1,1,0,0
1622149432334040,-1,-1,-1,2,0,2,0,1
1622149432334040,-1,-1,-3,-3,-1,-5,-2,-2
1622149432346462,0,-1,-1,0,1,-3,-1,0
1622149432346462,-2,-1,0,0,-2,1,0,0
1622149432355843,-2,-1,-2,-2,-1,-1,-1,-2
1622149432355843,-2,-4,-3,-2,-2,-5,-2,-4
1622149432369865,-2,0,1,0,0,1,0,3
1622149432369865,-1,0,-1,-2,-2,-1,-1,0
1622149432376998,-2,-1,-1,-3,0,-5,-1,-4
1622149432376998,2,1,1,0,-1,0,0,0
1622149432392896,-2,-1,0,-1,-2,0,0,0
1622149432392896,-4,-3,-2,-1,1,-2,-3,-2
1622149432394896,0,-1,-1,0,-1,-1,-2,0
1622149432394896,-1,0,0,1,-1,3,1,1
1622149432415821,0,-1,-3,-1,0,0,-1,-1
1622149432415821,0,-1,-2,-3,-1,-4,-1,-4
1622149432416821,-1,0,2,1,-1,2,-1,3
1622149432416821,-2,-1,-1,1,-3,1,-1,1
1622149432430074,-1,-3,-3,-2,0,-4,-4,-5
1622149432430074,-1,-1,-1,0,-1,0,-1,1
1622149432436906,0,-1,-1,0,-2,2,0,0
1622149432436906,-1,0,-3,-2,-2,-4,-1,-3
1622149432452855,-1,-1,0,0,1,0,0,-1
1622149432452855,0,1,0,-1,0,3,-1,2
1622149432454829,-2,0,-1,-1,-1,-4,2,-2
1622149432454829,0,-2,-2,-2,0,-5,-2,-2
1622149432466705,1,-1,0,0,-2,2,-1,1
1622149432466705,-1,1,1,0,-1,-1,-1,0
1622149432475846,0,-3,-2,-3,0,-4,-2,-4
1622149432475846,0,-1,1,0,-1,2,-1,2
1622149432489870,-4,0,1,0,-2,1,1,2
1622149432489870,-1,-3,-3,-4,-2,-4,-1,-3
1622149432496853,-3,-1,0,-1,-2,-1,-1,0
1622149432496853,-3,-1,0,1,2,2,1,2
1622149432512884,2,-2,-2,-1,-2,-3,-1,-1
1622149432512884,-1,0,-2,-2,0,-3,-1,-2
1622149432514031,-2,1,1,-1,-1,2,-3,2
1622149432514031,0,-1,-1,-2,-1,0,0,-1
1622149432535809,-1,-2,-3,-2,-1,-9,-2,-2
1622149432535809,-1,0,0,2,-1,1,0,0
1622149432536811,0,-1,-1,-1,-2,1,0,1
1622149432536811,-2,-2,-2,-3,1,-3,-2,-5
1622149432549963,0,-1,-1,-1,-3,0,0,0
1622149432549963,-1,-1,1,1,-2,2,0,2
1622149432556981,-2,0,-2,-3,-2,-4,-2,-2
1622149432556981,-1,-2,-1,0,-1,-4,-2,-2
1622149432573324,-1,1,-1,-2,1,2,1,1
1622149432573324,-1,-2,-1,-1,-1,-1,-2,0
1622149432574183,1,-2,-3,-2,0,-3,-1,-5
1622149432574183,0,0,0,0,-2,1,-3,0
1622149432586943,-3,0,0,0,0,2,0,2
1622149432586943,-2,-3,-2,-3,-1,-4,-3,-3
1622149432595950,-2,-1,1,0,0,-1,1,-1
1622149432595950,0,-1,0,0,-1,0,1,0
1622149432609997,-1,-1,-2,-2,-1,-4,-1,-4
1622149432609997,-2,-1,-2,-1,1,-1,-1,-3
1622149432616923,-1,-2,-1,1,-3,3,-1,3
1622149432616923,-2,0,0,-2,1,-1,-1,0
1622149432633261,-1,-2,-3,-3,-2,-2,-2,-2
1622149432633261,-1,-3,0,0,0,0,-1,1
1622149432634818,0,-1,-1,-1,0,1,0,-1
1622149432634818,2,-1,-2,-1,-1,-4,-2,-3
1622149432646098,0,-1,0,0,0,-1,-1,-1
1622149432646098,1,0,0,0,-3,2,1,1
1622149432655099,-2,0,-3,-2,0,-2,-1,0
1622149432655099,-2,-2,-2,-2,-2,-2,-2,-3
1622149432669829,-3,-2,1,0,-1,3,1,1
1622149432669829,0,-1,0,-1,-2,0,-1,-1
1622149432676974,1,-4,-3,-2,-1,-5,-2,-4
1622149432676974,-1,1,0,-1,-1,2,2,1
1622149432692853,-2,-1,0,1,0,0,-1,-1
1622149432692853,-1,-1,-2,-3,-1,-3,-1,-3
1622149432694931,-1,-1,-1,0,-1,-1,-2,0
1622149432694931,-2,0,0,-1,-1,0,-1,3
1622149432706222,0,0,-2,-3,-1,-3,0,-2
1622149432706222,1,-1,-1,-1,0,-2,-1,0
1622149432715926,0,1,1,2,-2,2,1,1
1622149432715926,-4,-1,-2,-1,-1,-1,0,-1
1622149432729881,-3,-1,-3,-5,0,-2,-3,-2
1622149432729881,-1,1,0,1,-1,1,-1,0
1622149432736887,0,-1,0,1,-1,0,0,-1
1622149432736887,-2,-2,-3,-2,-1,-4,0,-4
1622149432752841,-2,0,-1,0,-2,1,0,1
1622149432752841,-2,-3,0,2,-2,1,0,2
1622149432754838,-1,-2,-2,-4,-2,-5,-2,-2
1622149432754838,0,2,-1,-1,1,-2,-2,-2
1622149432766970,1,-2,-1,2,-2,2,-2,1
1622149432766970,-2,0,-3,-2,0,-2,-2,-2
1622149432775978,1,-1,-1,-2,1,-3,-2,-3
1622149432775978,1,0,2,2,-2,4,-1,-1
1622149432789796,-2,2,1,-1,-2,-2,-2,0
1622149432789796,0,-1,-2,-2,-2,-3,-2,-3
1622149432796782,-2,-1,-1,-1,1,0,0,1
1622149432796782,1,-1,1,1,0,0,0,2
1622149432812845,-1,-2,-2,-1,0,-3,0,-4
1622149432812845,0,-2,-1,1,-2,-3,-1,0
1622149432814840,-2,0,0,0,-1,1,0,0
1622149432814840,-2,0,-3,-1,-1,-2,0,-2
1622149432826852,0,-2,-2,-1,0,-5,-1,-4
1622149432826852,-1,-1,1,2,0,1,0,1
1622149432835811,-1,-1,-1,0,0,2,-2,-1
1622149432835811,1,-2,-2,-3,0,-5,0,-4
1622149432848810,0,-2,1,0,-3,0,1,-1
1622149432848810,0,2,1,-1,0,3,0,0
1622149432857759,-1,-3,-3,-2,-1,-2,0,-2
1622149432857759,-1,-2,-1,-2,1,0,-1,0
1622149432880700,-1,0,-1,2,0,2,0,2
1622149432880700,-2,-3,-2,-2,-3,-3,-1,-3
1622149432881697,-2,-1,-3,-3,0,-4,-2,-3
1622149432881697,-1,1,2,1,-1,1,-3,1
1622149432886681,-1,-1,1,-1,-2,1,0,0
1622149432886681,0,-3,-4,-4,0,-3,-1,-3
1622149432895658,-1,0,0,1,-2,1,-1,1
1622149432895658,-1,-1,-2,0,-2,1,0,2
1622149432908671,0,-2,-2,-2,-1,-4,-2,-3
1622149432908671,-1,1,-2,-2,2,-1,2,1
1622149432917706,1,-2,0,0,-1,4,1,2
1622149432917706,-3,-1,-1,-2,-1,0,-1,-3
1622149432932723,-1,-4,-2,-3,1,-4,-3,-3
1622149432932723,-3,1,-1,0,-1,0,0,1
1622149432938734,-1,1,1,0,-2,-1,-1,-1
1622149432938734,0,-4,-2,-3,-1,-4,0,-3
1622149432946767,0,0,-1,-1,-1,3,0,1
1622149432946767,-2,0,0,0,-2,3,1,1
1622149432955745,-2,-1,-3,-3,-2,-4,0,-5
1622149432955745,0,-2,-1,-2,-1,-2,-1,-1
1622149432969462,-1,-1,0,1,-1,2,0,2
1622149432969462,0,-1,0,-2,-2,-1,0,-3
1622149432977718,-1,-2,-1,-1,-1,-1,-2,-2
1622149432977718,-1,0,-1,0,-1,3,-1,2
1622149432991948,-1,-1,-1,-1,-2,-4,0,-1
1622149432991948,1,-1,-3,-3,0,-3,-2,-4
1622149432998926,-1,-1,0,0,-2,-1,-1,1
1622149432998926,-1,0,1,-1,-2,3,0,2
1622149433006439,0,-3,-3,-2,-1,-4,-1,-4
1622149433006439,-1,-2,0,1,-1,-3,-1,0
1622149433015782,-1,-1,1,2,-1,2,0,0
1622149433015782,0,-1,-2,0,-2,-2,0,-2
1622149433037843,-2,0,-2,-3,0,-2,-1,-2
1622149433037843,-3,-1,0,-1,-1,1,-1,2
1622149433039838,-1,-1,-3,-2,-2,-1,-2,-1
1622149433039838,-2,-2,-3,-3,-3,-6,0,-4
1622149433052074,0,-2,0,1,-1,2,-1,1
1622149433052074,0,1,2,0,-2,2,0,1
1622149433059459,0,0,-2,-2,0,-5,-2,-2
1622149433059459,0,0,1,0,-1,-3,-1,0
1622149433076256,0,1,0,0,-1,3,-1,1
1622149433076256,-1,-2,-2,-2,0,-2,0,-2
1622149433077256,-3,-2,-2,-3,1,-4,0,-1
1622149433077256,0,0,0,0,-1,1,0,1
1622149433089412,-1,0,-2,0,-1,0,-1,-1
1622149433089412,-1,-3,-2,-2,-2,-4,-2,-2
1622149433097785,-2,0,1,2,-3,1,-1,0
1622149433097785,-1,-1,-1,-1,-1,3,1,1
1622149433111962,-2,0,-3,-4,-1,-4,-1,-3
1622149433111962,-1,-1,-1,-1,1,-1,-2,-1
1622149433119435,-1,-2,0,-1,-3,2,2,2
1622149433119435,-1,-2,-3,-1,1,-3,-3,-2
1622149433135814,0,-1,0,-1,-3,-4,-1,-2
1622149433135814,-2,0,1,-1,0,1,0,1
1622149433136845,-1,1,0,0,-1,-2,-1,-1
1622149433136845,-2,-3,-3,-4,-1,-4,-4,-6
1622149433148804,-4,-3,1,-1,0,2,-1,1
1622149433148804,-2,-1,-2,1,-1,2,-1,-1
1622149433157780,0,-2,-2,-3,0,-4,-1,-4
1622149433157780,1,0,-1,1,-2,0,0,0
1622149433172441,0,2,2,3,-1,1,-1,2
1622149433172441,1,-1,0,-1,-2,-2,-1,-2
1622149433178750,2,-2,-4,-3,0,-1,-1,-1
1622149433178750,-1,-1,0,1,-1,3,0,1
1622149433194893,-1,-2,-2,-1,-2,0,-2,0
1622149433194893,-2,-2,-2,-2,0,-3,0,-4
1622149433196876,1,-1,1,0,-3,0,0,-1
1622149433196876,-1,0,0,-1,0,-1,-1,1
1622149433209449,0,-1,-2,-2,-1,-4,-1,-3
1622149433209449,-1,1,-2,0,0,-2,-3,0
1622149433217754,-1,-1,1,1,-2,2,0,2
1622149433217754,-2,-3,-2,-2,0,-2,-1,-3
1622149433232734,1,-1,-2,-2,0,-4,-2,-4
1622149433232734,-2,-2,-1,0,-1,2,0,1
1622149433238721,-2,-1,0,-2,-1,-1,0,-1
1622149433238721,-2,-3,-2,-3,-1,-5,-2,-2
1622149433254933,-2,-1,0,1,-1,3,0,1
1622149433254933,-1,-2,2,1,0,2,0,1
1622149433257462,0,0,-2,-1,-1,-9,-2,-4
1622149433257462,0,1,0,1,-1,1,0,0
1622149433269051,-1,0,0,0,-2,1,2,2
1622149433269051,0,-2,-1,-3,-1,-4,-1,-1
1622149433277923,0,-1,-3,-3,-1,-1,-2,-2
1622149433277923,-2,0,1,0,-2,1,-1,0
1622149433292437,-1,-2,-2,-3,-1,0,0,-2
1622149433292437,2,0,-4,-2,-1,-5,-1,-4
1622149433300351,-2,0,1,1,-1,0,0,-1
1622149433300351,-1,-1,-2,0,0,-1,0,0
1622149433314862,-2,-1,-4,-2,-1,-4,-1,-3
1622149433314862,-1,-1,-1,-2,-1,-1,-3,-1
1622149433317485,-1,1,-1,0,-1,2,0,1
1622149433317485,-2,-2,-3,-1,0,-3,-1,-3
1622149433328873,0,-3,-1,-1,1,-3,0,-2
1622149433328873,1,1,-1,0,-1,0,-1,3
1622149433337738,-3,-1,0,-1,-1,-1,-1,-1
1622149433337738,-2,0,-3,-3,1,-3,-2,-3
1622149433352699,-2,-2,1,0,0,2,0,1
1622149433352699,0,-2,-1,0,-4,0,0,0
1622149433359474,0,-3,-3,-2,-1,-3,-3,-2
1622149433359474,2,0,-1,1,-3,-1,2,0
1622149433375839,-1,0,0,0,-2,1,0,1
1622149433375839,-2,-2,-1,-3,-1,-3,-2,-3
