timestamp,emg1,emg2,emg3,emg4,emg5,emg6,emg7,emg8
1615919246699238,-2,-1,-1,-1,4,-3,7,0
1615919246699238,-1,-1,-4,-3,-7,-2,2,-1
1615919246701233,2,1,0,-5,2,3,-1,0
1615919246701233,-4,-3,-6,6,-14,-7,-1,-3
1615919246713180,-1,0,0,-4,7,-1,8,-1
1615919246713180,0,0,0,1,2,1,-9,-3
1615919246721339,-2,-2,-2,-3,-2,-8,-4,-2
1615919246721339,-1,1,1,-7,-10,6,3,1
1615919246736314,0,1,-8,2,10,-1,5,0
1615919246736314,-3,-3,-3,-7,-8,-9,-1,-1
1615919246738293,1,0,-3,0,2,3,-3,1
1615919246738293,0,-1,1,0,-5,-1,5,-1
1615919246759351,-2,-1,-8,-4,5,11,-11,-1
1615919246759351,1,2,6,-3,-3,-4,20,3
1615919246761345,-2,-2,-1,3,9,6,-13,-4
1615919246761345,0,0,1,-9,-3,-3,-1,2
1615919246773312,1,-1,5,-1,-2,-1,1,1
1615919246773312,0,2,-2,-3,1,8,3,0
1615919246782287,-2,-3,-1,6,-2,1,5,-3
1615919246782287,0,-1,-3,-2,-1,-4,-5,-1
1615919246797251,-2,0,0,-4,-2,1,8,-2
1615919246797251,0,-1,-2,3,4,-1,-15,-3
1615919246798256,0,1,4,-6,-1,-5,6,2
1615919246798256,-2,-2,-5,-6,-6,-1,-9,-1
1615919246818910,-1,-3,-3,12,-7,0,8,0
1615919246818910,-1,-1,-2,-7,-4,-1,-1,-1
1615919246820907,0,1,2,6,-1,0,2,1
1615919246820907,-2,-3,-12,-4,6,-1,2,-1
1615919246833530,-1,1,7,-14,-11,-5,-8,-1
1615919246833530,-3,-3,3,23,10,3,-3,0
1615919246842237,0,-1,-1,-7,-14,-9,-2,-1
1615919246842237,-1,-1,0,3,9,9,1,-3
1615919246856684,-1,0,-1,-16,-7,-6,5,-2
1615919246856684,-2,-2,-1,13,7,2,-16,-3
1615919246859650,0,-1,6,0,-9,-1,6,-2
1615919246859650,1,0,4,-5,2,-6,-2,-1
1615919246879678,-3,-3,-1,1,3,4,5,-3
1615919246879678,0,0,-6,-9,-4,-6,8,0
1615919246880562,-2,-4,1,10,0,-11,-10,-2
1615919246880562,-1,1,2,2,-7,-7,-4,-2
1615919246892758,2,-2,-2,3,5,6,-4,1
1615919246892758,-3,-1,-1,-7,-3,7,1,-3
1615919246901570,-1,-3,-5,-6,-2,-5,0,0
1615919246901570,-1,-3,2,7,-1,-8,-8,-2
1615919246917181,0,0,-5,8,7,11,-4,-1
1615919246917181,2,0,4,-7,-9,-7,1,1
1615919246918182,0,0,-1,-7,0,3,1,-1
1615919246918182,-2,-2,-1,18,3,0,12,-1
1615919246939574,-1,-2,-7,-10,2,-2,-26,-1
1615919246939574,-1,0,2,12,-1,1,0,0
1615919246940569,0,-2,-2,-4,6,-2,8,0
1615919246940569,1,2,-2,-7,-4,-2,-4,-1
1615919246952874,0,-2,-1,-2,-10,-7,15,-1
1615919246952874,0,-1,-4,2,0,2,-6,1
1615919246961852,0,1,1,1,7,-1,-7,-1
1615919246961852,-3,-2,-4,-2,4,3,-1,-3
1615919246976930,-1,1,0,6,-8,-8,3,-1
1615919246976930,-1,-2,-3,-12,4,-2,0,0
1615919246977985,0,-1,-4,-2,4,5,4,-1
1615919246977985,0,-3,0,-8,-1,-8,-6,1
1615919246999710,1,1,2,0,-6,3,12,1
1615919246999710,-4,-3,-1,0,-3,-9,-27,-6
1615919247001328,0,-1,6,16,9,-4,3,-2
1615919247001328,1,3,4,-10,-5,9,8,0
1615919247021386,-3,-1,-1,4,1,-2,-11,-5
1615919247021386,-1,2,-9,-10,-2,0,11,-1
1615919247023383,-1,-1,-6,3,-3,6,-1,-1
1615919247023383,0,-2,10,-1,-5,-1,-6,-1
1615919247037244,3,-2,2,4,4,1,-1,1
1615919247037244,2,0,1,6,-6,0,7,0
1615919247038244,-2,1,-3,-9,11,-3,-4,-2
1615919247038244,-4,-1,-4,1,-8,2,-2,0
1615919247058866,-3,-1,-1,5,-1,-1,-4,-1
1615919247058866,0,-3,-1,-5,-1,-4,1,1
1615919247060861,2,1,-4,-13,-9,1,13,3
1615919247060861,0,0,4,9,6,1,-4,-3
1615919247082177,1,1,-2,0,-3,-11,-18,-3
1615919247082177,-3,-2,0,6,2,2,2,-1
1615919247083796,-1,-1,4,-1,-2,1,2,1
1615919247083796,0,2,8,-12,-2,1,1,-1
1615919247096956,-2,-1,-3,6,-8,-4,-2,-2
1615919247096956,2,0,-5,-4,1,8,15,1
1615919247097960,0,-1,-4,1,-5,-16,-15,-4
1615919247097960,-2,-3,-8,0,-4,-3,3,-5
1615919247118903,0,-3,-1,-4,7,-2,-6,-1
1615919247118903,-2,-1,-2,-7,-8,-1,0,-3
1615919247120897,-3,-1,0,2,4,4,-1,0
1615919247120897,1,1,5,1,1,-2,11,0
1615919247142133,1,-2,-4,-11,-21,-4,-16,0
1615919247142133,-2,-2,3,9,23,2,-2,-3
1615919247142797,-1,1,1,0,-11,-1,-3,-3
1615919247142797,-2,-3,-10,0,5,2,0,-2
1615919247156195,-4,-1,0,4,-5,-6,14,-1
1615919247156195,-2,-2,3,0,-3,1,-19,-1
1615919247163199,1,-1,-5,-8,-11,-10,-5,0
1615919247163199,-1,-2,-3,-4,2,8,0,2
1615919247179303,-2,0,2,1,5,3,1,-1
1615919247179303,-2,-2,0,-6,-7,-9,-6,-1
1615919247180530,-2,-2,-4,13,1,13,25,0
1615919247180530,1,-1,-4,-5,4,-15,-36,-1
1615919247202136,0,1,1,-11,0,0,10,0
1615919247202136,-1,0,1,4,-12,-6,4,-2
1615919247203796,-1,-4,-8,-4,3,2,-5,0
1615919247203796,-4,-1,9,4,-2,0,4,-3
1615919247215764,0,-1,-2,2,1,2,1,0
1615919247215764,1,1,2,-1,-2,-6,1,-1
1615919247222747,0,-1,-2,-5,0,3,-6,-1
1615919247222747,-1,-3,-9,-5,-22,-4,-1,0
1615919247238754,-2,0,9,11,27,3,4,1
1615919247238754,1,0,0,-32,-16,1,6,2
1615919247240753,-2,-2,2,15,2,1,-6,0
1615919247240753,0,1,0,13,5,-2,4,0
1615919247261839,-2,-1,-4,-3,1,3,-5,-1
1615919247261839,1,-2,0,10,-3,-1,20,4
1615919247262860,-2,0,2,-10,2,-3,-10,-2
1615919247262860,0,-1,-5,-8,-12,-6,2,-1
1615919247275949,-3,-3,-4,-4,6,-1,-1,0
1615919247275949,-3,-1,-1,-2,3,2,6,-1
1615919247282874,0,-2,-7,4,3,3,-2,-2
1615919247282874,0,-1,9,2,3,1,-2,1
1615919247299732,0,-2,-2,-10,-11,-4,2,-3
1615919247299732,-2,-2,-2,26,0,1,-4,-3
1615919247301359,-2,1,-2,-5,1,1,-2,-2
1615919247301359,1,-1,-8,-10,-4,-4,4,1
1615919247322020,-2,1,2,-2,-5,1,-2,-1
1615919247322020,0,1,-3,-7,-4,-1,-6,-1
1615919247323044,-2,-2,2,3,5,-4,7,-3
1615919247323044,0,1,-3,-3,-1,0,-15,-1
1615919247336549,0,1,-5,0,-6,-5,-1,-1
1615919247336549,-1,-1,-3,-10,-4,-3,-6,0
1615919247343231,1,-2,-2,6,-6,-2,-1,-2
1615919247343231,-1,-1,4,-7,2,3,12,-1
1615919247359019,-3,-3,-1,15,0,-1,-5,-2
1615919247359019,-1,-1,-4,-4,3,0,-1,1
1615919247361014,-1,0,2,-20,-15,-2,-4,-3
1615919247361014,-2,-1,-3,6,0,-5,4,-3
1615919247389333,-1,2,-1,-1,0,-1,-10,-1
1615919247389333,-2,-1,-4,1,10,5,0,-1
1615919247390331,-2,-1,5,0,-9,0,18,2
1615919247390331,0,-1,-5,6,6,-2,-25,-2
1615919247396533,1,0,-4,-10,-9,0,5,-1
1615919247396533,0,0,1,3,4,-5,-8,-3
1615919247402891,1,2,5,7,0,6,1,2
1615919247402891,-2,-2,-3,1,0,-7,8,2
1615919247418905,-4,-2,-2,-9,0,-2,0,-2
1615919247418905,1,0,1,-1,0,0,-2,-1
1615919247420544,-2,-2,-6,-7,0,-4,-9,-1
1615919247420544,0,-1,-1,6,-8,2,3,1
1615919247441581,-2,0,3,-7,-2,2,0,0
1615919247441581,-2,-3,-1,1,-1,-1,14,-1
1615919247443603,-1,0,0,5,1,-3,-22,-1
1615919247443603,-2,-1,-4,-7,2,-2,-2,-2
1615919247455897,-1,-2,-1,7,-1,-1,3,1
1615919247455897,-2,1,-3,8,0,2,-4,-3
1615919247462905,0,-1,3,0,1,-4,2,-1
1615919247462905,-1,-2,-3,-8,-1,2,2,-2
1615919247478919,1,-2,0,-1,-3,1,-2,-1
1615919247478919,-1,-3,-4,-13,-5,-3,-2,-2
1615919247480915,-1,0,9,4,9,2,0,0
1615919247480915,0,0,-4,6,-11,-2,-1,-2
1615919247502151,-1,0,-2,-6,11,5,-3,0
1615919247502151,0,-2,2,-3,-1,2,1,1
1615919247503835,0,-3,-9,-2,-9,-4,1,-3
1615919247503835,-1,1,-5,-4,-6,1,4,0
1615919247515768,0,0,9,10,7,0,-2,0
1615919247515768,-1,-1,0,-2,-4,0,5,-3
1615919247524819,-2,-1,-5,-7,4,-7,-22,-1
1615919247524819,-1,3,2,-2,3,8,5,1
1615919247539266,-2,-3,-3,1,-12,-19,1,-2
1615919247539266,2,-2,-3,-5,0,5,-1,1
1615919247541284,-1,-2,-2,-5,-1,2,5,-1
1615919247541284,-1,-4,4,6,5,-1,-6,-2
1615919247562199,0,0,-2,-3,-2,3,0,1
1615919247562199,-1,2,2,-3,0,-7,-1,0
1615919247563792,-1,-3,-8,12,-5,3,3,-1
1615919247563792,-3,0,2,-13,-2,4,7,-1
1615919247575870,-2,-2,-4,4,1,2,-7,0
1615919247575870,-2,-2,-2,2,-1,-4,-1,0
1615919247584906,0,2,5,-8,-11,-3,-4,2
1615919247584906,0,-3,-9,5,19,0,10,-1
1615919247599726,-1,0,2,3,-4,2,6,-3
1615919247599726,-2,1,1,1,-4,4,-10,-2
1615919247600574,-1,-1,-6,-11,-8,-9,5,-1
1615919247600574,-1,-5,-2,6,10,1,-9,-1
1615919247621554,0,-1,3,-8,-6,-4,1,0
1615919247621554,-2,-2,5,9,4,3,-7,-3
1615919247623578,0,1,-2,-9,-11,-4,2,-2
1615919247623578,1,2,1,1,-2,-3,7,2
1615919247635886,0,-2,-1,-6,-3,-5,-21,-4
1615919247635886,-1,-3,-6,-11,1,2,4,-1
1615919247644312,-1,0,0,16,6,-2,4,-1
1615919247644312,-4,-2,-1,-7,-12,-3,-5,-2
1615919247666903,-1,-2,0,0,1,9,4,-2
1615919247666903,-2,-3,-5,-11,-8,-6,-2,-1
1615919247668904,0,-1,-1,7,6,3,0,0
1615919247668904,0,1,-2,-4,-5,-1,-4,-2
1615919247681889,0,-1,-5,9,-2,-10,5,-1
1615919247681889,1,0,-1,-2,4,-1,-4,-1
1615919247683792,-2,-1,-3,-5,1,-1,-3,-2
1615919247683792,0,0,3,-5,-9,-1,1,-1
1615919247694943,0,-2,-7,-2,3,1,2,-1
1615919247694943,0,1,0,1,-4,-4,6,1
1615919247703894,-1,-2,7,5,-4,0,-17,-1
1615919247703894,0,-3,-3,-13,-3,-5,-5,-1
1615919247718880,-2,-2,-3,-4,-8,-5,-2,-2
1615919247718880,-1,-3,-6,10,1,10,2,-2
1615919247720849,0,-2,-6,-4,3,1,1,1
1615919247720849,0,-1,6,2,1,-3,-5,-1
1615919247741696,-2,-4,-5,-9,-14,-3,-2,0
1615919247741696,-1,3,4,-9,-6,-12,-2,-2
1615919247743690,-1,-2,-6,2,-2,4,3,-2
1615919247743690,0,-4,-5,13,9,1,7,1
1615919247755659,0,1,0,-23,-4,-1,-17,-1
1615919247755659,-1,-2,-2,5,7,-3,-2,-3
1615919247771616,0,-1,2,0,-3,-6,6,1
1615919247771616,0,3,-3,-3,1,2,-6,-2
1615919247779594,-1,-2,-3,9,8,5,11,1
1615919247779594,-1,-1,0,-6,-7,-5,-3,0
1615919247780592,-3,-2,1,-7,1,4,-7,-4
1615919247780592,0,-3,0,0,1,6,3,0
1615919247801536,0,0,-5,-3,-1,-3,3,0
1615919247801536,-4,0,-7,-4,-7,-2,-3,0
1615919247803531,-2,1,5,3,0,-3,4,-1
1615919247803531,-2,-1,1,13,2,1,-3,-2
1615919247815499,3,0,-6,-17,-3,1,4,-1
1615919247815499,-1,2,5,23,11,7,-10,-1
1615919247824474,0,0,-3,-10,-2,0,5,0
1615919247824474,-4,-1,-1,-1,-10,-14,4,-2
1615919247839435,-3,-2,4,6,7,-2,-21,-4
1615919247839435,1,-2,-3,-9,-15,-7,6,-3
1615919247840432,-1,-1,0,-2,6,4,0,0
1615919247840432,-1,-3,-4,-7,-8,-3,-8,-2
1615919247861377,1,3,10,10,5,1,10,1
1615919247861377,-1,2,2,-6,-5,-3,1,-1
1615919247863371,-1,-5,-4,2,1,3,-7,-2
1615919247863371,-1,1,0,-6,2,1,1,-1
1615919247875339,-1,-2,-2,-4,-8,-4,3,-2
1615919247875339,2,-1,-2,-5,-5,1,2,0
1615919247884315,1,0,17,12,5,-6,-2,-2
1615919247884315,-2,-3,-3,1,2,6,-2,-1
1615919247899629,-2,-1,-5,-2,0,-9,2,-2
1615919247899629,-2,-2,-2,5,6,-2,-6,-3
1615919247901280,-1,-1,-3,-12,-8,-5,2,-3
1615919247901280,-1,-2,-1,2,7,-2,-1,0
1615919247921840,-2,0,2,5,-8,-1,1,-2
1615919247921840,-1,-3,-7,-12,8,5,-1,-2
1615919247922863,2,1,-9,5,0,-3,1,-1
1615919247922863,-1,-1,3,-9,-9,-1,7,1
1615919247943927,-1,-5,-5,-6,-8,-7,-18,-2
1615919247943927,1,6,11,4,10,0,3,0
1615919247945917,0,0,-3,-5,-4,1,-4,1
1615919247945917,-2,-2,-3,-1,3,-2,3,-2
1615919247959362,1,1,-5,5,-9,1,11,2
1615919247959362,-3,-4,9,-10,2,-1,-5,-4
1615919247961356,-2,1,4,1,1,2,6,0
1615919247961356,1,0,0,7,0,-2,-4,0
1615919247981359,-2,-2,-4,-5,-4,0,-3,-3
1615919247981359,1,0,8,11,1,-1,-3,0
1615919247983295,-1,0,-4,-13,-5,-2,1,-2
1615919247983295,-1,-2,-4,-6,-3,-2,-1,-1
1615919248003990,-1,0,4,14,9,0,2,1
1615919248003990,-1,-2,-14,-11,-13,-1,-1,0
1615919248005888,0,0,-1,0,-1,-5,-2,-1
1615919248005888,1,-1,1,0,-1,1,4,-1
1615919248019796,-2,-1,0,2,7,-1,2,-2
1615919248019796,-2,-2,-4,1,1,-1,-2,0
1615919248020795,-1,-5,-8,-3,-5,1,-2,-1
1615919248020795,0,3,10,-3,-5,-2,2,0
1615919248042042,-1,-2,3,6,12,1,0,-2
1615919248042042,0,-3,-5,0,1,0,-1,0
1615919248043048,-2,0,-2,-6,-6,-5,3,-1
1615919248043048,0,-1,-3,-5,-4,-1,-2,-2
1615919248064090,-2,-2,-4,3,4,3,-2,-2
1615919248064090,1,0,1,5,-1,-1,-6,0
1615919248066056,-1,-2,-4,-13,-7,-1,14,-1
1615919248066056,-2,-5,-7,10,-7,-11,-38,-4
1615919248086998,1,1,5,-13,0,9,8,2
1615919248086998,0,0,-8,8,-4,-9,-2,-2
1615919248087995,-3,-1,3,7,8,-3,-2,-1
1615919248087995,0,1,4,-6,-13,5,6,1
1615919248102197,-2,1,-3,-6,-2,-3,-2,-1
1615919248102197,-1,0,-4,-5,-1,-1,2,-1
1615919248103858,-2,-1,-6,1,2,3,-4,-1
1615919248103858,-1,0,2,4,1,-3,1,0
1615919248123834,-1,-1,-1,4,2,7,-1,0
1615919248123834,0,0,3,-12,-2,-7,8,1
1615919248125805,-2,-2,-5,10,-7,-1,-4,-1
1615919248125805,0,-2,-5,0,15,-3,-2,-2
1615919248138184,-1,-1,-1,-5,-8,-3,6,-2
1615919248138184,-1,-2,-5,0,0,2,-6,-1
1615919248145876,2,1,11,-7,-1,3,-4,-1
1615919248145876,0,-3,-2,-3,0,1,3,-1
1615919248161974,-1,-3,-5,4,0,-2,-8,-2
1615919248161974,-3,-1,3,-5,-3,-2,-3,-1
1615919248163909,-1,0,0,-3,5,6,-3,2
1615919248163909,0,0,2,12,-3,-2,2,0
1615919248182885,1,0,-3,-10,-11,-4,-2,0
1615919248182885,-3,-3,-1,-3,-2,5,2,-2
1615919248192224,-1,-2,-4,-4,-4,-6,-11,-3
1615919248192224,-3,-2,-2,-3,2,4,0,-1
1615919248198187,-1,-2,-5,4,0,-6,8,-2
1615919248198187,-1,-1,3,9,-1,-8,-11,-2
1615919248205816,0,0,0,0,1,-5,3,-1
1615919248205816,1,-1,-7,-14,-11,2,0,0
1615919248221774,0,-2,-2,5,7,4,0,0
1615919248221774,0,-1,0,0,-2,3,8,0
1615919248223769,0,0,3,4,0,-6,-5,-1
1615919248223769,-1,-3,-4,-2,-3,0,-5,-2
1615919248243801,0,5,11,-12,-2,0,2,0
1615919248243801,-1,-2,-5,19,0,2,9,0
1615919248245762,-1,0,1,-3,2,-4,-28,-2
1615919248245762,-2,1,-1,-6,-10,-5,3,0
1615919248258904,0,0,-2,-7,4,0,-2,-1
1615919248258904,0,-1,-4,-16,-12,1,-6,-3
1615919248264887,-1,-2,-1,20,4,2,7,-3
1615919248264887,0,2,8,4,5,-3,2,-1
1615919248281818,0,-3,-1,10,-3,-5,-12,-2
1615919248281818,1,-1,-1,-17,8,7,4,1
1615919248282815,-2,-3,-3,-9,-7,-3,1,0
1615919248282815,-1,0,-2,7,10,3,-3,0
1615919248304008,-3,-2,-4,-3,-10,0,-5,-3
1615919248304008,-1,-2,3,-3,-2,-9,6,-1
1615919248305895,-1,-2,2,-3,-2,5,13,-1
1615919248305895,1,0,-6,-1,-11,-12,-25,-2
1615919248318136,0,3,3,-7,-2,-2,0,2
1615919248318136,-3,-1,-4,16,5,11,-1,-5
1615919248325143,-2,0,10,-2,3,-5,5,1
1615919248325143,1,-3,-6,-1,0,4,7,0
1615919248342202,-2,-3,-3,-7,-4,-6,-1,-2
1615919248342202,1,-1,0,0,1,-1,-8,3
1615919248343203,0,-1,-3,3,-11,1,1,-1
1615919248343203,-2,-1,-2,-3,7,-3,2,-2
1615919248364003,-1,0,0,0,0,1,-4,-2
1615919248364003,-1,-1,0,-16,-6,3,0,1
1615919248366896,-1,-1,-2,12,3,-3,3,-2
1615919248366896,-3,-4,-8,-11,-2,-6,-11,-3
1615919248379020,1,-1,-3,-15,-4,-1,3,1
1615919248379020,-1,-1,-2,13,5,3,2,0
1615919248385931,2,2,1,-4,-10,1,-6,1
1615919248385931,-2,-1,-1,-1,8,0,6,-2
1615919248402251,0,1,2,3,3,2,2,-1
1615919248402251,-2,-3,-3,-5,-11,-7,-14,-1
1615919248403893,-2,-1,-2,5,9,4,4,-1
1615919248403893,1,0,2,-1,2,3,11,3
1615919248423788,1,-1,-1,3,0,-1,-1,0
1615919248423788,1,1,-2,-2,-1,2,7,0
1615919248425759,-2,-1,9,-2,-1,-4,-7,-2
1615919248425759,-2,-1,3,21,4,1,4,-2
1615919248437869,-3,-5,-5,-14,-4,2,-9,-2
1615919248437869,-1,-1,0,3,-2,-7,-2,-2
1615919248446608,-2,-1,-6,-9,-2,1,5,0
1615919248446608,0,1,8,1,0,0,-2,0
1615919248461887,0,-1,-3,4,-2,-2,0,-2
1615919248461887,-2,0,4,1,-1,-6,0,-2
1615919248462910,0,-1,-8,-10,0,2,-5,0
1615919248462910,-1,-2,-5,-9,-7,-3,-1,-2
1615919248483968,0,-1,-2,-2,-2,5,5,4
1615919248483968,0,0,1,10,3,0,5,-3
1615919248485563,-4,-2,-5,-7,9,-10,3,-3
1615919248485563,0,-2,-2,-2,-7,5,-6,-1
1615919248498297,-2,2,-4,9,8,-4,0,-2
1615919248498297,2,-1,10,-8,-10,4,-2,2
1615919248506821,2,0,6,-4,6,5,5,1
1615919248506821,0,-2,-10,-8,-7,-6,0,-2
1615919248521775,-2,-2,5,9,3,0,-3,-3
1615919248521775,1,0,-5,3,7,0,0,0
1615919248523775,-1,-2,-1,-1,-8,0,0,0
1615919248523775,-1,-3,-1,12,6,-2,-11,-1
1615919248543853,-1,0,1,4,-2,-5,-5,-1
1615919248543853,-1,0,0,-9,0,-3,-5,0
1615919248545564,-3,-2,-2,-6,-4,-4,-1,-2
1615919248545564,1,0,0,-1,-2,8,19,3
1615919248557929,-1,-3,2,4,3,-1,-18,-4
1615919248557929,-1,-1,-4,-3,-1,-4,-6,-2
1615919248567409,1,-3,2,2,-7,2,0,-1
1615919248567409,-3,-3,-9,-21,-3,-1,7,-1
1615919248581898,1,2,9,3,1,4,8,2
1615919248581898,-1,0,-1,5,-13,-11,0,-1
1615919248583861,-1,-2,-3,4,11,1,-4,-2
1615919248583861,1,0,0,-3,-1,6,-3,-1
1615919248603942,-2,-2,-7,3,0,-5,0,-1
1615919248603942,0,-1,-6,-14,-6,0,-1,0
1615919248605863,0,1,-1,9,-1,2,9,2
1615919248605863,-1,1,3,-2,-2,-3,-4,-2
1615919248618306,0,-2,-4,-11,1,-1,1,-1
1615919248618306,-1,1,5,3,4,4,0,1
1615919248626898,0,0,-4,-1,-2,1,-5,-1
1615919248626898,-1,1,0,-7,-5,-11,0,0
1615919248641309,0,-1,-3,-5,-6,3,4,-2
1615919248641309,-1,2,8,8,3,-4,-2,-2
1615919248643308,2,0,-2,-6,-1,6,-9,-1
1615919248643308,0,-1,0,15,0,-2,0,-1
1615919248663992,-1,-1,-3,2,2,-4,1,0
1615919248663992,-1,-3,-4,-7,1,4,-2,-1
1615919248665611,-1,-2,-7,-8,-3,-3,2,-2
1615919248665611,-1,2,12,-1,-5,-2,-6,1
1615919248677887,1,0,-3,-2,8,4,12,1
1615919248677887,-2,-2,-4,-5,-2,-10,-15,-1
1615919248686634,-2,-1,-8,-10,-9,-10,7,-1
1615919248686634,-1,-3,-10,6,2,0,-8,-3
1615919248702216,-2,-2,4,-5,-6,-2,7,0
1615919248702216,-3,0,0,-5,2,5,3,0
1615919248703883,1,-1,-6,3,4,2,0,0
1615919248703883,-1,0,-3,-12,-5,0,2,-1
1615919248731872,-1,-1,-3,8,2,1,-6,0
1615919248731872,0,0,-2,1,4,-6,1,-2
1615919248732895,-1,-1,-2,5,-5,-4,-7,0
1615919248732895,0,1,3,-5,4,2,12,-1
1615919248737856,1,-1,-3,-6,-5,-2,-20,-2
1615919248737856,-2,-2,4,12,3,3,0,0
1615919248746641,-2,0,-3,-2,0,5,4,0
1615919248746641,-1,-2,6,5,-3,-9,-6,-2
1615919248762249,0,-1,1,6,3,1,7,1
1615919248762249,0,-1,-1,-28,-15,-6,0,-1
1615919248763816,-2,-3,-5,13,1,-1,-7,-1
1615919248763816,0,-1,-1,-2,10,11,-1,-1
1615919248784246,-1,0,0,-8,-20,-21,7,-1
1615919248784246,-4,-4,-4,11,7,6,-5,-2
1615919248785594,-1,1,-3,-4,-6,-2,2,-1
1615919248785594,0,0,-4,-3,1,-1,-4,0
1615919248798321,0,-1,6,3,0,3,9,-1
1615919248798321,-1,-2,-7,6,2,-2,5,0
1615919248806819,0,1,5,9,4,-4,-28,-1
1615919248806819,-3,-2,-3,-10,-7,-1,4,-1
1615919248821958,-2,-1,-3,0,4,5,-3,-2
1615919248821958,-1,-1,-6,-17,-9,-3,1,-1
1615919248822978,-1,-1,9,12,6,1,3,-2
1615919248822978,1,-1,-7,3,5,-3,-3,0
1615919248843974,-3,1,9,-1,-7,-2,-4,0
1615919248843974,0,1,-3,-8,-1,4,2,1
1615919248845636,0,-4,-2,-9,0,-4,5,1
1615919248845636,0,1,4,19,9,-1,-8,-3
1615919248858417,0,1,-1,-3,-2,2,7,-1
1615919248858417,0,1,-4,5,0,-3,-8,-4
1615919248866731,-2,-1,-1,-19,-11,-7,8,0
1615919248866731,0,0,0,-7,2,1,-3,0
1615919248882234,0,1,1,8,0,0,-8,-1
1615919248882234,0,0,0,7,3,3,7,-1
1615919248883882,-1,-2,-6,-5,-3,2,-4,-2
1615919248883882,0,1,1,-3,-2,-3,5,2
1615919248903974,-1,-2,-5,-1,-3,-3,0,1
1615919248903974,-2,0,2,-10,-6,0,-4,1
1615919248905878,0,1,6,5,1,3,7,0
1615919248905878,-3,-3,-12,-9,-12,-6,0,-1
1615919248926911,0,0,9,-1,-3,-2,-4,-1
1615919248926911,-2,-2,2,19,11,3,-3,-2
1615919248928880,-3,-1,-4,4,7,0,9,-3
1615919248928880,-3,0,-1,-10,-15,-13,-27,-3
1615919248941933,0,-2,-7,-5,0,-3,0,-3
1615919248941933,0,-2,1,-8,-6,-5,-3,-1
1615919248942931,1,-1,0,0,1,5,6,0
1615919248942931,-1,-3,-3,6,0,0,4,0
1615919248963802,0,0,-3,-2,4,0,1,1
1615919248963802,-2,1,-4,-7,-1,-5,-7,-2
1615919248965819,-1,-2,2,10,0,-3,-4,0
1615919248965819,0,0,7,4,1,2,4,0
1615919248987251,-2,-2,-5,-2,1,3,8,-1
1615919248987251,0,-1,-2,1,-1,-6,-21,-1
1615919248988811,-2,0,-7,-13,-7,3,-1,-2
1615919248988811,0,0,1,9,9,-3,0,-3
1615919249001710,-2,-3,-2,3,5,-1,1,-2
1615919249001710,0,-1,-4,-2,-16,-1,8,0
1615919249003789,0,-1,-3,-2,3,-4,-3,-1
1615919249003789,-2,-3,-2,-3,-1,8,4,-2
1615919249024136,-1,-2,-3,6,-2,-3,-4,-3
1615919249024136,-1,-3,-3,-11,5,1,1,0
1615919249026131,2,0,-3,-6,-3,-3,-7,-1
1615919249026131,1,2,2,-10,-3,-1,8,1
1615919249047286,0,-2,-2,12,-1,-2,-6,-3
1615919249047286,-1,-1,-1,-5,-3,0,2,-1
1615919249048234,-2,0,7,0,3,0,0,0
1615919249048234,0,-1,1,5,-6,4,13,1
1615919249060827,0,-1,-1,-8,-2,-12,-20,-1
1615919249060827,-2,-2,0,6,2,3,6,-2
1615919249067786,0,-2,-3,-3,-5,-5,-2,0
1615919249067786,-2,-2,-5,-13,-6,1,1,0
1615919249084737,-2,-1,3,8,3,4,-1,-3
1615919249084737,-1,-2,2,-1,-6,3,3,-1
1615919249085734,1,2,-4,-7,-1,0,-1,-1
1615919249085734,-1,-1,0,1,-5,-8,-9,0
1615919249106674,0,-2,-5,-6,-3,6,5,3
1615919249106674,-1,-2,-1,9,4,-4,-6,-2
1615919249108693,0,2,7,-3,-2,4,5,-1
1615919249108693,-2,0,-2,1,0,-1,-3,-1
1615919249120662,-2,0,-5,1,0,-3,-3,-1
1615919249120662,2,-1,-2,-8,-5,3,8,1
1615919249127617,-3,-5,-4,1,6,-4,-4,-1
1615919249127617,-1,-2,4,3,12,4,-4,-2
1615919249144812,-1,2,0,-8,-13,-3,3,-3
1615919249144812,-1,-3,-1,5,5,1,2,0
1615919249145809,-4,-2,-2,-19,-16,-6,-1,-1
1615919249145809,-1,0,0,7,1,0,-1,-2
1615919249166368,-1,-3,-2,-4,2,1,1,-1
1615919249166368,-1,-2,-8,-1,0,-5,-3,-2
1615919249168358,-1,1,10,0,-6,3,-5,1
1615919249168358,0,-2,-1,6,7,-1,5,0
1615919249181554,-4,-4,2,-5,2,-1,-4,-3
1615919249181554,1,0,0,4,3,-2,16,2
1615919249187541,0,-4,-4,0,1,0,-34,-2
1615919249187541,1,0,-3,-2,-7,-1,0,-1
1615919249204713,0,0,-5,-9,1,8,1,1
1615919249204713,0,2,9,12,-2,-10,-1,-1
1615919249205711,-1,0,1,0,5,-1,9,-1
1615919249205711,-1,-1,-4,-12,-14,-1,-4,-1
1615919249226654,-1,-2,-2,1,8,-2,-4,-1
1615919249226654,-1,1,-1,0,-1,5,1,-2
1615919249228648,-1,2,-4,3,1,2,4,0
1615919249228648,0,-1,5,-4,-5,-6,-5,-2
1615919249240885,0,-1,-3,4,10,3,19,0
1615919249240885,-1,0,3,-6,-8,-2,-34,-2
1615919249247871,1,-1,-1,5,7,-3,5,2
1615919249247871,-2,-2,-6,-21,-6,-8,-6,-3
1615919249263845,0,-2,-4,-1,-7,0,1,1
1615919249263845,-1,0,4,8,7,-1,8,-1
1615919249266812,-1,-3,-7,-9,-7,2,3,-2
1615919249266812,-1,1,0,15,3,1,1,0
1615919249286959,-1,-2,2,-6,-5,-2,-7,0
1615919249286959,-4,0,-6,-4,8,5,-4,-5
1615919249287957,-1,-5,-5,-2,-13,-4,6,1
1615919249287957,0,-1,-8,7,5,2,2,-1
1615919249301640,0,1,2,-5,-11,-2,-3,-1
1615919249301640,-2,-1,-2,6,1,-2,6,-1
1615919249308406,0,1,2,-8,4,-5,-9,-1
1615919249308406,-1,-2,0,1,-4,2,-3,0
1615919249331610,-1,-1,-6,-5,3,1,0,-1
1615919249331610,0,-1,-3,-9,-6,0,-2,-1
1615919249333605,-1,-1,1,5,1,-9,4,-1
1615919249333605,-2,-3,-3,0,1,1,5,0
1615919249346621,1,5,9,13,3,-1,-10,-1
1615919249346621,-3,-4,-2,-8,-15,-1,6,0
1615919249348617,-1,-2,-3,-3,18,1,-2,-2
1615919249348617,-1,-1,2,1,1,-1,2,-1
1615919249369562,-1,-1,-7,-13,-11,-4,2,0
1615919249369562,0,0,-1,-8,3,-1,8,1
1615919249370559,-3,1,3,5,-9,-2,-11,-1
1615919249370559,1,2,-1,2,3,2,-12,0
1615919249384453,1,-5,-4,0,-1,-7,1,0
1615919249384453,-3,-4,-2,8,0,6,-4,-2
1615919249385451,1,-2,-3,-15,-6,-5,9,-1
1615919249385451,-1,0,-2,3,7,7,6,1
1615919249406395,-1,-2,-4,0,-1,-7,-11,-1
1615919249406395,0,-2,4,-21,-10,-6,-4,0
1615919249408389,-1,-1,0,23,3,2,-1,-1
1615919249408389,-1,0,-3,-9,-5,-1,-3,-2
1615919249420382,-2,-4,-3,-6,2,-3,6,-2
1615919249420382,1,2,6,3,-1,0,-1,2
1615919249429333,-2,2,-4,2,-3,3,4,-1
1615919249429333,1,-3,3,-2,-4,-7,-10,0
1615919249444293,-4,-2,1,-4,0,9,0,-1
1615919249444293,-3,-2,-5,-4,-9,-6,2,-1
1615919249446288,-2,-2,-6,0,-13,-6,-3,-1
1615919249446288,-2,0,14,-1,12,4,14,0
1615919249467232,0,0,-3,7,0,-3,-24,-2
1615919249467232,1,-1,-1,-11,3,4,-4,0
1615919249468229,-4,-3,-5,15,2,4,4,-2
1615919249468229,-1,-2,-7,1,-4,-4,-3,-1
1615919249480197,-1,2,5,-16,-9,0,2,-1
1615919249480197,3,1,-3,15,13,0,-3,1
1615919249489174,-1,-1,5,-8,-1,3,14,0
1615919249489174,-1,-2,-5,-4,-3,-3,-25,-4
1615919249504133,-3,-1,0,3,-2,4,3,-3
1615919249504133,1,-1,-6,-3,-1,-3,-2,0
1615919249506128,0,-1,3,0,1,-4,5,0
1615919249506128,-3,-4,-5,-5,-3,1,3,-2
1615919249527072,1,-1,-5,-2,-3,-3,2,0
1615919249527072,-1,-2,3,7,4,-1,-6,-2
1615919249528069,1,1,-2,17,14,5,-2,1
1615919249528069,0,0,-5,-19,-18,-2,-4,1
1615919249540038,0,0,6,2,2,-9,2,-1
1615919249540038,-2,1,-4,-7,3,4,3,-3
1615919249549013,-1,-3,0,-3,-5,-11,-6,-2
1615919249549013,-1,0,-6,3,0,-2,11,-2
1615919249563973,0,-1,-1,-2,4,3,-5,0
1615919249563973,-2,-3,1,9,0,-3,-2,-1
1615919249566965,1,-2,-7,-10,-1,2,-6,-2
1615919249566965,0,2,13,6,6,4,12,1
1615919249586912,1,0,2,-1,-2,-7,1,-1
1615919249586912,-2,1,-5,-3,-4,-2,2,-1
1615919249587910,-2,-3,-2,-10,-4,-4,-7,-4
1615919249587910,-1,1,-7,9,6,2,1,0
1615919249600875,-2,-3,0,13,15,3,0,0
1615919249600875,1,-1,-4,-7,-9,2,-6,0
1615919249609850,-1,0,7,1,4,-1,-1,-1
1615919249609850,-1,0,-3,-12,-5,-1,0,-1
1615919249623814,-4,-1,-3,0,0,-5,-1,0
1615919249623814,-2,-2,-3,2,-2,-1,1,-1
1615919249625808,-1,-2,-1,0,-2,0,-5,-1
1615919249625808,-2,-3,1,-5,-2,1,0,-3
1615919249646752,-1,2,-3,-2,-2,-7,2,0
1615919249646752,-2,-4,1,5,0,4,7,-1
1615919249648747,-1,1,2,13,2,0,-16,-3
1615919249648747,0,-4,-2,-2,1,0,0,0
1615919249660714,-1,-2,-4,-7,-5,1,5,0
1615919249660714,-1,1,4,6,2,1,-1,-1
1615919249669690,1,1,-4,-19,-7,-2,0,-1
1615919249669690,1,-1,2,14,4,1,2,-2
1615919249684651,-2,1,0,-1,2,9,2,1
1615919249684651,-2,-1,1,-3,-6,-12,-1,-1
1615919249685648,-2,-3,-5,-2,2,3,10,0
1615919249685648,-3,0,6,3,-8,-6,-19,-1
1615919249706592,0,-3,-4,-5,-2,3,2,0
1615919249706592,-1,-1,-2,4,-1,-8,-5,-1
1615919249714571,-1,-1,-2,1,-3,7,3,3
1615919249714571,-1,-1,-1,-7,0,-7,-2,-2
1615919249720555,-2,1,1,-2,-3,2,1,2
1615919249720555,0,-1,-1,-5,0,-2,-7,-2
1615919249729531,-1,-1,9,-4,-4,-2,2,0
1615919249729531,-2,-2,-5,-4,0,-2,1,0
1615919249744490,-2,-1,0,5,-1,2,-4,0
1615919249744490,0,-3,-3,0,-5,-4,-1,0
1615919249745488,-1,0,0,-13,-3,-4,-2,1
1615919249745488,-1,-3,-7,14,8,7,17,0
1615919249766431,-1,2,11,5,-8,-2,-18,-3
1615919249766431,-3,-2,-6,-16,-6,-8,-2,0
1615919249769424,0,-2,1,8,2,4,4,1
1615919249769424,-2,0,2,0,-1,-1,-2,0
1615919249780395,1,-2,-7,-9,-1,3,9,-1
1615919249780395,-2,-1,2,2,1,-2,-1,-2
1615919249789371,-1,0,-2,12,4,-3,-16,0
1615919249789371,-1,-1,-5,-26,-9,-3,4,0
1615919249804330,-1,0,2,7,-1,-3,-3,-2
1615919249804330,-1,1,5,3,3,9,-3,-2
1615919249805328,-1,-1,-6,-5,0,-4,8,-2
1615919249805328,0,-2,1,8,-4,4,-5,-2
1615919249826273,0,-1,2,-16,-5,-7,-1,0
1615919249826273,-1,-4,-5,8,3,6,1,-1
1615919249828267,0,0,2,-3,-4,0,0,0
1615919249828267,0,-1,-2,8,1,-2,0,0
1615919249849210,-4,-5,-11,-14,-2,-2,0,-4
1615919249849210,1,2,0,-3,3,2,1,0
1615919249851205,-1,-1,-3,2,-11,2,4,-2
1615919249851205,-2,-2,-2,-1,5,-10,-1,-1
1615919249864199,0,2,4,-5,-14,-4,-20,-2
1615919249864199,-2,-1,-3,25,15,-1,-2,-1
1615919249867162,-1,-1,0,-14,1,-3,-5,-2
1615919249867162,1,-1,-2,-2,-7,7,11,1
1615919249887135,0,0,9,6,5,-3,-24,-3
1615919249887135,-2,-2,1,5,-2,3,9,0
1615919249888107,-1,-2,4,3,0,0,-1,2
1615919249888107,-4,-2,-3,-17,-4,-11,-11,-4
1615919249909051,0,-2,-9,10,4,0,21,2
1615919249909051,0,-1,0,-16,-7,2,-10,-1
1615919249911073,-1,-1,-1,7,6,2,1,-1
1615919249911073,-1,-1,2,-5,-13,0,-1,2
1615919249924011,-2,-2,-5,5,3,-4,13,-3
1615919249924011,1,1,6,-1,-6,-5,-22,-1
1615919249926006,-1,-2,-8,-2,2,-2,4,-3
1615919249926006,0,-2,7,4,-2,-3,-4,0
1615919249946973,-1,-3,-10,-10,-6,-1,-1,-1
1615919249946973,0,0,-2,2,-4,-1,6,2
1615919249947971,-2,0,-2,-8,-5,-2,-4,-2
1615919249947971,-1,0,0,3,-10,-3,4,-2
1615919249968916,0,0,8,12,18,7,-8,0
1615919249968916,-3,-2,-3,-19,-14,-7,2,-1
1615919249970885,-2,-2,0,3,10,-2,-7,-1
1615919249970885,0,1,-5,1,-5,2,4,-1
1615919249983875,2,-1,0,4,-4,1,6,-1
1615919249983875,-1,-2,-7,-5,1,-6,0,-3
1615919249990831,2,3,24,-2,-3,2,6,2
1615919249990831,-3,0,0,-2,5,-4,-19,-2
1615919250006789,-1,0,-2,0,2,7,5,0
1615919250006789,0,-2,-3,-6,1,-2,0,-2
1615919250008784,-1,-2,-8,-1,-4,0,1,-2
1615919250008784,1,0,2,25,5,-5,4,-1
1615919250029752,-3,-1,-2,-10,3,5,1,0
1615919250029752,-1,-1,0,-5,-5,-1,1,0
1615919250030726,-1,0,-6,-3,-1,-1,0,2
1615919250030726,-1,-2,-1,-6,2,1,2,0
1615919250043715,-1,-1,-2,17,0,-2,-8,2
1615919250043715,0,-2,-5,-12,-3,3,12,-2
1615919250050696,-2,-3,-4,-6,4,4,-4,-2
1615919250050696,0,-1,0,-6,0,-4,8,0
1615919250066656,-1,-2,-4,8,-3,-3,-22,-3
1615919250066656,1,4,13,2,3,2,9,4
1615919250069646,-1,-2,-4,0,-11,0,-3,-2
1615919250069646,1,-1,-5,-8,0,1,0,0
1615919250089568,-2,-1,-2,-10,7,-5,11,-1
1615919250089568,-2,-1,-4,6,1,1,-5,-1
1615919250090565,0,-1,-4,-5,-8,-3,-5,-2
1615919250090565,0,-2,9,9,1,1,-5,0
1615919250103555,-2,-2,-6,-12,-8,-3,8,-1
1615919250103555,0,-3,-2,10,7,0,-8,-3
1615919250110539,-1,1,7,-3,-2,1,1,3
1615919250110539,-2,-4,-6,-10,-1,-5,-7,-2
1615919250134448,1,1,5,7,-7,0,-1,0
1615919250134448,-1,-3,-4,-8,-4,-2,6,1
1615919250135445,0,0,-4,5,6,-2,-3,-2
1615919250135445,-1,0,0,2,1,-6,-2,1
1615919250149433,1,-3,0,-8,-1,1,-1,-1
1615919250149433,-1,2,-4,0,-3,3,-2,0
1615919250150430,-2,-3,-4,2,-3,-3,-4,-1
1615919250150430,-1,-2,-5,-1,4,1,5,-3
1615919250163395,-1,0,-4,-2,0,5,-9,-1
1615919250163395,-2,1,8,7,-7,-7,2,-3
1615919250170376,0,-3,-6,0,6,-3,-2,1
1615919250170376,-1,0,0,-10,-7,-1,-4,-2
1615919250186333,0,-1,-3,-7,-4,-4,7,0
1615919250186333,-1,-4,-7,10,4,3,-3,0
1615919250188305,-2,0,5,-6,5,-1,1,0
1615919250188305,-1,-1,-4,-1,-1,1,-2,0
1615919250209248,-1,1,3,-12,-2,-1,10,2
1615919250209248,-2,-3,-10,7,-6,-3,-12,-1
1615919250211242,0,0,-2,-7,2,-4,-2,0
1615919250211242,-1,-2,-1,0,-3,-1,-5,-2
1615919250223235,-2,-4,0,11,4,2,9,-1
1615919250223235,-1,2,3,-1,5,0,-1,0
1615919250230192,-2,-1,-5,-3,-9,-2,-3,-2
1615919250230192,0,0,4,-2,3,6,0,-1
1615919250247171,-2,-1,-5,-1,-11,-9,-7,-2
1615919250247171,-1,-1,2,-3,5,3,2,1
1615919250248152,-1,0,2,1,-9,-3,-2,0
1615919250248152,-1,1,-1,2,2,2,-1,-2
1615919250269112,-1,-2,-3,-2,-5,-5,-4,-3
1615919250269112,3,-1,4,7,3,8,5,1
1615919250271083,-1,-4,-4,-8,-2,-4,-6,-4
1615919250271083,-2,0,0,0,-1,-1,-6,0
1615919250284073,0,1,-1,2,3,-1,4,0
1615919250284073,-1,-1,0,-16,-5,-5,-2,-1
1615919250290033,0,-2,-6,10,1,3,6,0
1615919250290033,0,-1,1,9,6,8,-2,-1
1615919250307015,-2,-1,-1,-5,-2,-8,-7,-1
1615919250307015,-3,-1,-8,-8,-9,5,5,0
1615919250308009,0,2,8,3,-3,-6,-2,0
1615919250308009,0,0,-5,-2,-4,-4,-6,0
1615919250328952,0,-1,0,-5,4,6,1,-1
1615919250328952,1,1,2,-3,-8,-9,6,-1
1615919250330923,-3,-3,2,13,3,2,-22,-3
1615919250330923,2,0,-3,-19,-8,-3,6,2
1615919250342915,-2,-2,3,-3,0,-5,-2,-1
1615919250342915,-3,-2,-7,4,-1,1,5,-2
1615919250351867,-2,-1,0,2,-1,-1,-7,-3
1615919250351867,0,-3,-3,1,-2,-8,1,-2
1615919250373808,0,-1,2,-6,-2,-1,-3,0
1615919250373808,-1,-2,-1,0,-2,-6,-2,-2
1615919250375803,-1,-1,-6,8,2,3,10,0
1615919250375803,0,0,4,5,7,0,-6,-1
1615919250389766,-2,-3,-5,-5,-8,1,0,0
1615919250389766,-2,0,-1,-3,0,-1,-4,-1
1615919250390764,0,1,-5,-2,5,-3,5,0
1615919250390764,-1,-3,0,-9,0,2,-9,-1
1615919250402758,-2,0,-6,7,-1,-8,2,-2
1615919250402758,0,0,5,-3,8,8,0,0
1615919250411707,2,-1,-1,0,-3,-1,2,1
1615919250411707,-5,0,0,3,-3,-2,-1,-4
1615919250426691,-1,0,-1,-5,-4,6,4,2
1615919250426691,2,1,-6,8,4,-7,-7,1
1615919250428662,-2,-3,-8,-5,0,2,3,-1
1615919250428662,0,1,8,7,-8,1,3,-1
1615919250449629,2,0,-4,-3,7,1,-2,2
1615919250449629,-3,-1,6,-3,-1,1,-1,-3
1615919250450640,-1,-2,-7,-13,-3,0,18,1
1615919250450640,-2,0,1,3,-4,-4,-23,-2
1615919250462595,0,0,-3,10,7,2,-1,-1
1615919250462595,2,-1,-1,-15,-2,2,-3,-1
1615919250471547,-1,-1,-1,-2,-6,-4,5,0
1615919250471547,-3,-1,-7,-9,-2,2,3,1
1615919250486507,-2,-2,2,15,-3,0,2,-3
1615919250486507,-1,-1,-1,4,3,-3,-5,-2
1615919250488502,-2,-1,-2,-5,-7,-3,-4,-2
1615919250488502,-1,-1,-4,-1,8,3,4,0
1615919250509470,-1,-2,-3,-4,-1,0,-7,-2
1615919250509470,-1,-1,6,-5,-7,1,2,1
1615919250511440,-1,-2,-2,-3,-2,-3,-10,1
1615919250511440,2,1,-1,5,3,-1,10,3
1615919250523408,-3,-1,0,-7,-3,0,2,-3
1615919250523408,2,-4,-12,16,-1,-11,-10,-3
1615919250532408,-1,2,12,-12,0,6,3,0
1615919250532408,0,-2,-4,-11,-11,-3,-3,0
1615919250547368,-1,1,1,-6,-2,7,13,1
1615919250547368,-3,-3,-6,4,1,-3,2,0
1615919250548366,0,-1,0,8,5,-4,-7,-1
1615919250548366,-1,-1,-9,-1,5,2,6,-3
1615919250569309,1,1,4,-9,-10,-5,-8,1
1615919250569309,-2,-1,3,0,-1,2,1,-1
1615919250571280,1,-2,-1,2,-6,-4,-2,0
1615919250571280,-2,-2,2,-10,-2,-3,-3,-1
1615919250583248,0,-2,-3,12,-1,0,1,-1
1615919250583248,-1,0,3,-1,6,-1,8,-1
1615919250592249,-1,-1,-3,2,-2,3,-6,-2
1615919250592249,-1,-2,-1,-3,-4,0,-1,0
1615919250607208,-1,0,1,0,0,-4,-9,-2
1615919250607208,1,-2,-4,-7,-3,2,4,0
1615919250608182,-1,-1,5,1,3,2,-2,-1
1615919250608182,-2,0,-2,13,3,0,9,1
1615919250629126,0,-2,-1,-12,-4,-7,-4,1
1615919250629126,-2,-2,0,4,2,3,0,-2
1615919250631121,0,1,8,-12,-4,6,2,0
1615919250631121,-1,0,-5,3,-3,-9,0,-1
1615919250643112,-2,-2,-2,1,3,1,0,-2
1615919250643112,0,-1,-3,-8,-14,-3,-3,0
1615919250652065,0,0,0,2,15,5,13,-1
1615919250652065,-3,-3,-3,10,1,-5,-26,-4
1615919250667048,1,-2,-3,-5,-2,1,0,0
1615919250667048,0,0,3,-4,-4,-4,-6,0
1615919250669019,0,-2,-7,3,-3,0,7,0
1615919250669019,-1,1,1,-3,3,4,3,0
1615919250688967,-3,-1,-4,-2,3,-10,-2,-1
1615919250688967,-2,-1,5,-5,-13,1,-4,-2
1615919250690961,-3,-3,-4,-4,1,-3,-4,-1
1615919250690961,0,0,-7,5,2,7,4,2
1615919250702953,-3,-2,-1,2,0,-3,-4,-2
1615919250702953,-1,1,-6,-8,-1,-1,3,1
1615919250711940,-1,-3,-3,4,-2,-5,-2,-2
1615919250711940,1,1,7,2,-2,-3,-5,1
1615919250726902,0,-1,-1,-14,-9,7,3,-2
1615919250726902,1,-1,-1,14,16,2,-2,1
1615919250728953,-2,-3,-9,-10,-7,-8,-5,-2
1615919250728953,-1,-2,6,-7,-2,-5,3,-3
1615919250748901,0,0,-1,-1,5,-2,0,-1
1615919250748901,-1,0,3,5,-8,-1,1,-2
1615919250750901,-1,0,1,5,-3,0,-21,-2
1615919250750901,-2,-2,-1,-6,10,4,4,-2
1615919250772812,1,1,4,-4,-3,-9,-3,0
1615919250772812,-2,-1,-6,11,3,5,2,0
1615919250773809,-1,1,5,2,-5,-5,6,0
1615919250773809,0,-2,-2,-12,-8,-4,1,-1
1615919250786798,-2,-1,-2,9,0,2,-6,0
1615919250786798,-1,-2,-4,-19,1,-1,7,-2
1615919250788770,-1,1,-2,1,-6,-7,-15,0
1615919250788770,-1,0,-2,-9,-2,1,1,-1
1615919250809737,1,1,8,5,-2,3,5,1
1615919250809737,-1,-2,-3,-3,-1,-6,-2,-1
1615919250810711,-1,-1,3,13,8,4,1,-3
1615919250810711,-2,-2,-4,-3,-12,-5,1,-1
1615919250831654,-2,1,-2,6,3,-4,-7,-1
1615919250831654,0,1,4,-9,-2,2,0,0
1615919250833648,-2,0,-2,-5,1,2,4,1
1615919250833648,1,0,-3,8,6,4,1,-1
1615919250846638,-1,-3,5,2,-3,-5,-2,-1
1615919250846638,1,-3,-2,-9,-4,1,-1,0
1615919250848609,2,-1,-6,-1,-5,-2,14,0
1615919250848609,0,2,11,-7,5,3,-17,-2
1615919250869577,0,-3,-11,-3,1,1,5,1
1615919250869577,-4,-1,-3,0,0,1,-13,-3
1615919250870592,0,-2,-4,2,-3,-1,2,0
1615919250870592,-2,-2,-5,1,1,-2,5,-1
1615919250891494,-3,-3,-4,-8,-11,2,-6,-3
1615919250891494,-1,1,2,8,9,2,-1,-2
1615919250893489,0,-2,-5,-4,-2,-8,3,1
1615919250893489,0,-1,-4,-12,-6,0,2,-1
1615919250905858,-2,-1,3,7,5,-1,-4,-3
1615919250905858,-1,-1,-2,4,0,3,2,0
1615919250914822,-2,-1,0,-3,-9,-14,-8,-2
1615919250914822,-1,1,10,2,4,8,10,-1
1615919250929784,-1,-1,-5,-2,-1,-2,-15,-2
1615919250929784,-1,-1,2,-4,4,2,-1,-2
1615919250930779,-1,-1,-4,-3,-9,-2,-1,0
1615919250930779,-2,-1,5,9,-1,-8,-1,0
1615919250951723,-1,0,0,-2,8,4,6,-1
1615919250951723,0,0,0,-3,-10,-4,-3,0
1615919250953718,-1,-2,-5,-5,6,4,-2,-3
1615919250953718,-1,-3,-9,4,-1,-1,0,-1
1615919250966676,0,2,13,15,-3,-9,12,1
1615919250966676,0,-2,-7,-20,5,-8,-23,-2
1615919250972644,-1,-3,-1,-4,-1,3,0,-2
1615919250972644,-1,-3,-5,3,-7,-3,18,0
1615919250989598,0,0,4,-3,1,4,-13,1
1615919250989598,-1,-1,-1,13,-4,-5,2,-1
1615919250990620,0,0,-4,-17,-8,-4,-3,-1
1615919250990620,0,0,7,3,5,2,-4,-2
1615919251011564,-1,0,-10,-10,-5,-3,1,-3
1615919251011564,1,0,2,14,-8,4,4,0
1615919251013534,-1,-1,-2,-9,3,3,-6,-2
1615919251013534,0,-1,-4,5,-1,-3,-2,-1
1615919251026499,1,-1,-6,-15,-15,-1,-1,-3
1615919251026499,-2,-3,-3,1,7,-1,-2,-1
1615919251033480,0,2,7,6,1,-1,3,0
1615919251033480,-2,-2,-11,-9,0,-3,-6,-4
1615919251049462,0,-3,-1,-7,-1,1,14,1
1615919251049462,-2,1,-9,-6,-5,0,-24,-2
1615919251050460,-1,1,7,12,3,1,13,3
1615919251050460,-1,-2,-6,-9,-8,-2,-26,-2
1615919251071379,-1,-2,-1,11,6,3,8,2
1615919251071379,0,0,8,1,-1,-11,9,0
1615919251073374,1,-1,-3,-4,5,7,1,-1
1615919251073374,0,1,3,3,-1,-1,-5,-1
1615919251086363,-1,-3,-2,-10,-6,-2,-5,-4
1615919251086363,-2,-1,0,-8,-2,-4,1,0
1615919251093344,-1,-1,0,15,7,10,-5,0
1615919251093344,-2,-4,-6,-5,-5,-5,6,0
1615919251109277,0,1,9,7,1,-1,-8,1
1615919251109277,0,0,-2,-6,5,3,7,-2
1615919251111272,0,-1,5,0,-2,-4,-10,-2
1615919251111272,0,-2,-5,-10,0,3,4,0
1615919251132241,-2,-1,-6,21,7,1,1,-3
1615919251132241,1,-1,2,-11,-9,0,-5,0
1615919251133213,-2,-1,-7,-8,-2,-1,7,-3
1615919251133213,-1,-2,-2,1,1,-4,0,-4
1615919251146179,1,3,4,6,-7,-3,-4,0
1615919251146179,-2,0,2,-1,16,6,6,-1
1615919251153160,-1,-2,-1,-3,-11,-3,-2,0
1615919251153160,0,-1,-13,-2,-6,-1,2,1
1615919251169141,0,1,5,-2,11,2,4,-1
1615919251169141,1,-3,-7,3,-10,-13,1,-2
1615919251171112,-1,-2,8,-1,6,2,-9,-2
1615919251171112,-1,1,1,20,2,0,17,2
1615919251192082,-3,-4,-8,-20,-10,1,-29,-4
1615919251192082,-1,-1,1,9,5,4,5,1
1615919251193080,-1,-2,-5,1,5,2,0,-1
1615919251193080,1,2,6,-8,-6,-3,0,-2
1615919251206021,-2,-2,-5,2,4,-17,1,-2
1615919251206021,-2,-1,-1,-11,-4,1,3,0
1615919251213024,-2,-1,-2,13,3,-6,-2,-2
1615919251213024,0,1,6,1,-2,6,-5,0
1615919251228981,0,0,-6,-8,-3,-1,2,0
1615919251228981,-1,0,3,-3,2,-4,-11,-3
1615919251230952,1,-1,-1,3,-6,-2,20,2
1615919251230952,-1,-2,-1,-9,1,-1,-20,-2
1615919251251921,-3,-4,-1,-3,-2,-3,-8,-3
1615919251251921,-2,-2,-3,4,-10,-2,-2,-3
1615919251253891,1,-1,-6,-8,10,-1,0,-1
1615919251253891,-2,-2,0,-3,2,5,-1,-2
1615919251265883,-1,-2,-6,-3,-2,-5,8,1
1615919251265883,-1,0,4,4,-7,-1,1,-2
1615919251274836,0,-2,-9,-11,-5,-1,-10,-1
1615919251274836,-3,-4,-2,-2,-4,-7,3,-1
1615919251289820,1,-1,3,3,1,2,1,0
1615919251289820,0,-2,-2,10,5,3,23,1
1615919251290793,0,0,2,-4,-2,2,-29,0
1615919251290793,0,1,4,-5,-4,-7,-2,0
1615919251311762,-2,-3,0,-9,-4,-5,0,-2
1615919251311762,1,-1,-9,-1,-1,-5,0,0
1615919251313755,-1,-2,-1,-9,-6,-1,2,-2
1615919251313755,-2,-2,1,12,10,2,-1,-2
1615919251325726,-1,0,-3,5,-8,-2,-3,-1
1615919251325726,-1,-1,0,-6,-1,5,1,2
1615919251334675,-1,-1,-2,4,1,-2,2,0
1615919251334675,0,-1,-1,-4,-5,-5,-6,-4
1615919251349635,-3,-1,-6,-14,-3,3,10,-2
1615919251349635,0,-1,2,6,-2,-3,4,0
1615919251350632,-3,-3,-2,18,2,-2,-26,-3
1615919251350632,0,0,-3,-10,7,4,3,0
1615919251379579,2,-2,-7,-9,-6,-3,-3,3
1615919251379579,-1,-2,0,-2,-7,3,-5,-2
1615919251380577,0,-1,-7,-2,-1,-3,9,-1
1615919251380577,-2,1,4,4,-2,-7,-7,-1
1615919251385539,-3,-1,2,6,6,7,0,-1
1615919251385539,2,-1,-5,-6,-2,-2,-6,0
1615919251394515,0,-2,7,-7,-10,-4,4,-3
1615919251394515,1,0,-3,4,2,8,2,1
1615919251409499,1,1,3,7,5,4,5,-1
1615919251409499,-1,0,3,2,-7,-9,-6,-1
1615919251410473,-3,0,-6,8,2,2,7,-2
1615919251410473,-2,-2,-4,-21,-9,2,-4,-1
1615919251431441,-1,0,-3,4,0,-6,-5,-2
1615919251431441,-1,1,6,1,4,3,4,-1
1615919251433411,0,1,1,8,4,0,0,-1
1615919251433411,0,-2,-4,3,-4,-7,6,3
1615919251445379,-1,0,1,-8,-3,5,10,-1
1615919251445379,-1,-3,-9,-9,-1,-1,-15,-3
1615919251454355,-2,-2,-3,-2,1,0,7,-1
1615919251454355,0,-1,2,6,-4,-2,0,-1
1615919251469339,-2,-3,-8,-11,-4,1,-1,-1
1615919251469339,-1,-1,0,7,13,1,0,-1
1615919251471310,0,1,9,4,-1,-1,14,3
1615919251471310,-1,-4,-1,-3,2,2,-17,-2
1615919251492278,-2,-3,-1,7,-3,-3,-9,-1
1615919251492278,-1,0,-3,-9,-4,-5,6,0
1615919251493257,1,0,-2,-2,-4,0,-2,-1
1615919251493257,-1,-4,-5,-5,6,-1,6,0
1615919251505220,0,1,10,3,-2,0,0,-1
1615919251505220,-2,-1,-6,2,-2,-7,-3,-2
1615919251514219,0,-3,-5,-11,-6,-2,-5,-2
1615919251514219,0,2,3,11,5,-2,4,-1
1615919251529179,-1,-2,-1,-6,-2,3,-3,-1
1615919251529179,0,-3,-4,-3,0,4,2,-1
1615919251531150,-1,-1,-5,4,1,4,-2,-1
1615919251531150,-1,0,4,-7,-12,-10,7,0
1615919251552118,-1,-3,-2,0,5,2,1,-1
1615919251552118,-1,-1,0,-3,-3,-3,-18,-1
1615919251553120,-1,-2,-2,0,4,1,0,-3
1615919251553120,0,-1,0,-12,-7,2,-3,-1
1615919251565084,0,0,-5,2,1,1,9,-1
1615919251565084,-2,-1,0,0,0,-3,4,-3
1615919251574044,0,0,2,-10,-1,1,-6,-2
1615919251574044,-2,-1,-3,17,6,3,8,-1
1615919251588996,1,0,3,-1,-6,-6,-5,2
1615919251588996,-1,-2,-5,-23,3,3,-1,1
1615919251590990,0,0,0,17,-6,-4,-1,0
1615919251590990,-1,0,5,-3,3,-3,-5,-2
1615919251611958,-1,2,-6,0,-1,0,-1,0
1615919251611958,-1,0,6,6,-3,2,-3,-1
1615919251612931,-3,-1,-3,-14,-1,0,16,0
1615919251612931,-1,-1,-8,-6,-10,-4,-19,0
1615919251625897,-2,-1,3,12,9,6,-3,-2
1615919251625897,-1,1,-1,7,2,-2,1,0
1615919251634872,-1,-1,0,-20,-10,-4,0,1
1615919251634872,-3,-4,-2,5,8,1,3,-2
1615919251648835,1,0,-2,-13,-4,-5,-1,2
1615919251648835,-2,1,4,16,2,1,-1,-3
1615919251650830,-2,0,3,-10,-2,-2,-5,-2
1615919251650830,-2,-4,-7,5,-2,1,-3,-2
1615919251671783,-3,-1,-3,-3,-4,-4,0,-2
1615919251671783,-2,-3,-6,-11,-3,0,2,0
1615919251673795,0,-2,-8,-4,-1,-3,3,-3
1615919251673795,0,1,11,8,-3,-4,3,0
1615919251685761,2,1,-1,-8,-2,8,-4,-1
1615919251685761,-2,-3,-5,1,4,-9,-4,-2
1615919251694713,-1,0,-5,-4,-6,2,1,0
1615919251694713,-2,-2,4,10,3,-6,5,-3
1615919251708701,-3,-1,3,-2,-7,-3,-1,-2
1615919251708701,-1,-4,-2,-10,-4,-4,-3,-1
1615919251715681,0,0,2,-8,-4,-2,-4,0
1615919251715681,0,0,-8,11,4,3,0,0
1615919251731638,-1,-4,-2,1,2,-4,-6,-2
1615919251731638,1,1,3,3,-6,4,0,-1
1615919251733635,-2,-3,7,7,12,-2,2,-1
1615919251733635,-1,-2,-2,-10,-6,3,-2,0
1615919251754553,0,-4,-6,0,2,-1,14,0
1615919251754553,2,1,0,1,-10,-4,-26,0
1615919251755586,-1,0,-1,6,2,0,-4,-1
1615919251755586,-1,0,-2,-5,-3,-2,-4,-2
1615919251769538,-1,-2,-1,5,3,-1,2,0
1615919251769538,-2,-2,-4,-3,-2,4,10,-1
1615919251770510,0,-2,-1,3,3,-3,-6,-2
1615919251770510,1,4,-3,-6,-5,3,4,-1
1615919251791480,-1,1,-3,-11,-5,-9,-19,-3
1615919251791480,-2,-2,-3,8,6,3,2,0
1615919251793449,-2,-3,-4,4,-9,-3,-5,-2
1615919251793449,-2,-4,-3,-11,7,0,4,-2
1615919251814393,1,-1,9,14,0,3,2,1
1615919251814393,0,-1,-1,3,-3,-4,1,0
1615919251816411,1,-1,-3,0,-1,0,-3,-1
1615919251816411,0,1,1,-10,-4,0,12,0
1615919251829352,-2,1,-4,14,1,5,-12,-1
1615919251829352,-2,-2,1,-15,-5,-6,0,-1
1615919251831347,-2,-3,-4,-15,-6,2,3,0
1615919251831347,0,-1,-8,1,-1,2,-1,0
1615919251852291,-2,-1,3,-3,-1,-9,2,-2
1615919251852291,2,-1,0,-2,2,6,0,2
1615919251853288,-4,0,0,13,2,-1,0,-4
1615919251853288,-2,-2,-2,-2,-1,0,-4,-2
1615919251874233,0,1,-1,-7,-2,0,0,-2
1615919251874233,-1,0,-2,4,-4,-3,4,-1
1615919251876227,0,-2,-3,-7,-4,2,0,1
1615919251876227,-1,-1,3,9,2,3,-5,0
1615919251889193,-3,-4,-4,0,-1,-7,12,-4
1615919251889193,0,0,-2,-5,-3,1,-9,-2
1615919251895176,0,1,1,2,-1,-3,-8,1
1615919251895176,-1,2,-2,-4,-8,-5,-4,0
1615919251912131,0,-1,-11,1,2,1,4,0
1615919251912131,-3,-2,4,-5,-4,-3,5,-1
1615919251913129,-2,-1,-1,8,4,1,-5,-1
1615919251913129,0,-1,3,-11,-11,-3,-2,0
1615919251934072,0,-3,-8,3,13,2,-4,-1
1615919251934072,1,2,8,-2,-4,0,0,-1
1615919251936068,0,-2,-3,7,0,0,-1,1
1615919251936068,0,-1,7,-6,2,-1,0,-3
1615919251949058,-2,-1,-6,-2,-6,-4,-4,-2
1615919251949058,-1,-3,-7,6,8,7,2,0
1615919251955017,0,1,0,-9,0,6,18,0
1615919251955017,0,-1,-8,17,0,-11,-27,-1
1615919251972012,-3,-3,4,-10,0,-1,1,-2
1615919251972012,0,1,-5,1,0,-3,-1,1
1615919251973966,1,1,0,-7,-3,-3,-1,0
1615919251973966,1,-1,-1,0,1,7,6,1
1615919251994910,1,0,-1,-4,-4,-1,3,2
1615919251994910,-3,-3,-11,2,-2,-2,10,-3
1615919251996905,0,1,19,0,-2,1,-14,-1
1615919251996905,-3,-4,-4,-10,0,-8,2,-2
1615919252007901,-1,0,4,5,-9,1,-7,-1
1615919252007901,0,0,1,3,0,2,9,-1
1615919252016890,-1,-4,-14,-7,-4,-4,-1,-1
1615919252016890,-2,-1,19,5,3,-1,14,0
1615919252031835,1,-3,-2,-6,-9,1,-20,0
1615919252031835,0,0,-1,-7,4,-4,-5,-1
1615919252033833,0,0,-5,4,-4,-2,-4,-2
1615919252033833,0,0,-5,2,5,-1,2,-1
1615919252054751,-2,-1,-2,-6,-5,-1,9,-2
1615919252054751,-1,0,3,2,-2,0,-9,-2
1615919252055748,0,1,0,5,5,7,-2,1
1615919252055748,3,-3,-6,-5,-3,-15,4,0
1615919252068737,-2,-2,7,5,6,6,-4,-4
1615919252068737,-1,-2,-1,-8,-6,-1,-5,-1
1615919252075720,-1,1,-6,-4,1,4,2,-1
1615919252075720,-2,0,-4,3,-1,2,-5,-2
1615919252091680,-1,0,0,-7,-2,-1,15,0
1615919252091680,-2,-3,-5,0,1,-4,-18,-2
1615919252093647,-3,-3,-2,-3,-2,-4,10,-2
1615919252093647,-1,0,1,2,0,1,-16,-2
1615919252114590,0,0,-7,-7,-10,-5,2,-2
1615919252114590,0,-2,1,-12,-4,-5,8,1
1615919252115587,-1,-2,-5,6,1,0,0,-1
1615919252115587,-2,-2,3,-5,3,1,-3,-1
1615919252129550,-2,-1,7,19,3,-6,-2,-1
1615919252129550,-1,-2,-4,-10,4,2,4,1
1615919252135534,0,-2,3,6,-7,-8,-10,-2
1615919252135534,-1,-3,-11,-22,-10,2,4,-2
1615919252151491,-1,-1,-2,1,9,2,-9,0
1615919252151491,-1,-1,0,6,0,2,4,1
1615919252153486,-2,3,0,0,1,-2,11,0
1615919252153486,-3,1,-2,2,-1,1,-10,-1
1615919252174457,1,-1,1,-13,-3,-1,1,1
1615919252174457,-2,1,-2,10,0,2,2,-1
1615919252176425,-1,-2,-1,-10,0,-5,2,0
1615919252176425,1,-1,-4,-1,-5,3,4,0
1615919252188393,-4,-1,-3,1,-6,-3,-4,-4
1615919252188393,0,0,-2,-3,-1,0,0,-2
1615919252197394,0,-1,-1,6,-1,0,-8,0
1615919252197394,-1,-2,-4,-1,2,-2,5,1
1615919252211355,-2,0,-1,-4,0,6,-3,-1
1615919252211355,-2,0,7,9,0,-7,0,-1
1615919252213326,-1,-2,-5,-17,-5,-1,-7,-2
1615919252213326,0,0,-3,0,2,0,18,0
1615919252234295,-2,1,3,8,5,0,4,-1
1615919252234295,0,-3,-4,-2,-5,-1,-33,-4
1615919252236290,-1,-2,4,1,-1,-2,3,1
1615919252236290,0,1,1,2,2,8,2,-1
1615919252248257,2,0,5,-4,-2,-10,-1,1
1615919252248257,-1,-4,-12,-3,1,4,9,0
1615919252257210,-2,1,9,4,-3,-5,-6,-2
1615919252257210,-3,-1,-6,-9,-2,3,-4,0
1615919252272170,-2,0,2,1,-5,-7,-5,-2
1615919252272170,-1,-1,-3,-2,-2,-2,1,-1
1615919252273201,-1,-2,-1,2,11,3,2,-2
1615919252273201,0,0,-3,-7,-9,1,9,-2
1615919252294134,0,-2,-3,-8,-2,-3,-18,0
1615919252294134,-1,0,1,9,2,0,5,-1
1615919252296106,1,-1,-4,-3,0,3,-1,1
1615919252296106,-2,-2,6,7,3,-14,-5,-3
1615919252317080,-2,-1,-6,1,3,6,2,-3
1615919252317080,0,0,1,-5,-6,0,3,2
1615919252318047,1,-1,2,4,-2,-1,1,0
1615919252318047,1,-2,-10,-10,-1,2,7,-1
1615919252332009,1,-1,1,14,5,-2,2,1
1615919252332009,-3,-1,-1,8,4,1,3,-3
1615919252333006,-2,1,-3,-7,-7,-4,-4,-1
1615919252333006,0,0,5,12,9,4,3,1
1615919252354949,1,-1,-10,-25,-16,-3,2,0
1615919252354949,0,-2,5,-1,-2,0,1,-1
1615919252356967,-2,-3,-7,1,0,-4,2,-2
1615919252356967,-1,0,7,3,1,-3,-11,-1
1615919252367937,-2,-1,-5,7,3,2,4,0
1615919252367937,2,1,5,-6,-1,-2,-2,0
1615919252376915,-2,-2,-6,-8,-7,-2,2,-1
1615919252376915,-3,-1,-2,17,2,-2,-7,-1
1615919252391873,0,-2,5,9,8,5,0,0
1615919252391873,-1,0,-5,-10,-3,-3,5,-1
1615919252393844,-1,0,2,-6,-2,0,-7,-1
1615919252393844,0,-1,1,2,-2,-1,-5,-2
1615919252414819,1,-3,-4,-3,1,5,6,-1
1615919252414819,-2,-1,-1,-1,-2,5,-1,1
1615919252415809,0,-4,-2,-2,0,-7,19,0
1615919252415809,1,2,5,-2,-3,-5,-18,0
1615919252427778,-2,-1,-6,-6,1,1,7,-1
1615919252427778,-1,2,7,3,-1,0,-1,-2
1615919252436753,-1,-1,-4,-11,1,4,1,-1
1615919252436753,-2,-5,-2,20,3,-2,1,-1
1615919252451713,0,-1,4,-15,-4,-5,-2,-1
1615919252451713,0,0,-3,11,2,2,1,1
1615919252453684,-3,0,-2,0,0,-3,-10,-3
1615919252453684,-1,-2,-5,-6,3,1,2,-2
1615919252474628,0,-1,1,-5,-6,-3,-7,-1
1615919252474628,-1,1,-3,-3,-2,-2,-1,-1
1615919252475625,0,-2,5,17,-4,-2,-1,1
1615919252475625,-2,-4,-5,-25,-6,-3,-4,-1
1615919252487594,0,0,-4,10,3,4,5,2
1615919252487594,0,0,-1,-6,-1,-5,0,0
1615919252496597,1,-1,1,-5,-2,2,-6,-2
1615919252496597,1,-1,-2,17,-2,1,3,-1
