timestamp,emg1,emg2,emg3,emg4,emg5,emg6,emg7,emg8
1615920455757919,-3,-1,0,6,-1,1,11,0
1615920455757919,0,-4,-8,-15,-2,3,4,1
1615920455758916,-1,1,3,12,5,2,-3,-2
1615920455758916,-2,-2,-8,-6,-3,-6,-10,-1
1615920455782881,-2,-3,-1,-4,3,0,7,-2
1615920455782881,0,0,-3,-2,-4,-2,-10,1
1615920455782881,1,2,5,-5,-4,-2,-2,-1
1615920455782881,-1,-1,5,1,1,0,6,-1
1615920455796815,-2,0,-7,-7,-5,-3,-3,-1
1615920455796815,-2,-2,-3,7,4,15,1,0
1615920455802802,1,0,2,-6,-4,-7,-2,1
1615920455802802,-2,-1,-7,0,0,-4,8,-1
1615920455818780,2,3,14,0,-1,2,-2,0
1615920455818780,-2,-1,-1,3,2,-15,4,-1
1615920455824744,-2,-5,-5,-3,-6,0,8,-2
1615920455824744,1,-1,-1,1,2,0,-7,-1
1615920455840867,-1,-1,-5,9,2,3,7,0
1615920455840867,0,-2,0,-6,-6,-5,-3,-3
1615920455841838,0,1,4,-4,1,2,1,-3
1615920455841838,-1,-2,-7,-2,-1,-9,3,0
1615920455857917,-3,0,11,12,1,1,-4,-2
1615920455857917,-3,-2,-8,-12,-3,4,-4,-1
1615920455863005,-1,-1,8,12,2,1,-6,-2
1615920455863005,0,0,6,1,0,0,5,0
1615920455877965,3,1,-9,0,1,4,15,1
1615920455877965,0,0,13,-3,-6,-10,-11,0
1615920455884947,0,0,3,-3,-1,0,6,1
1615920455884947,-3,-2,-2,7,4,-3,-3,-2
1615920455900898,0,-2,-7,4,3,3,5,1
1615920455900898,-1,-3,-6,-4,1,9,16,-1
1615920455901803,0,-2,-2,-7,-4,-15,0,-1
1615920455901803,-1,0,7,-4,-8,-1,-4,-1
1615920455924741,-2,-2,-5,-7,-3,-10,-8,-3
1615920455924741,-1,-2,0,-2,4,6,-1,-1
1615920455925738,-1,1,-14,5,-4,8,-1,-3
1615920455925738,1,1,15,4,0,-3,3,-2
1615920455937707,2,-7,-5,-5,-3,-5,7,0
1615920455937707,0,1,1,-2,-2,2,-8,-1
1615920455945685,-2,-2,-10,-6,0,-2,-5,-2
1615920455945685,0,-1,-3,-3,-1,4,12,0
1615920455960952,0,2,-7,-3,-3,-3,-12,0
1615920455960952,-1,-2,11,16,4,0,-6,-2
1615920455961852,-1,-2,-1,-1,3,8,1,0
1615920455961852,-1,-1,-8,-6,-4,-15,-6,-3
1615920455977110,-3,-1,4,-9,-3,-8,-13,-2
1615920455977110,-1,-3,-11,-8,-5,-11,0,0
1615920455983206,0,2,6,9,2,8,-4,1
1615920455983206,-1,-1,-3,4,5,10,0,2
1615920455998199,-1,-1,5,-4,-1,-5,-8,-3
1615920455998199,2,-4,-13,-1,-3,-2,-9,-2
1615920456004735,0,0,4,-11,-3,-3,28,2
1615920456004735,-2,-1,1,12,0,2,-41,-5
1615920456021690,0,0,-4,-7,0,0,-7,-1
1615920456021690,0,-1,-14,3,3,1,9,2
1615920456022692,-1,-3,16,5,-8,4,-2,-2
1615920456022692,-1,0,-5,-1,5,0,6,0
1615920456036650,-2,-1,1,3,-3,-6,2,0
1615920456036650,-2,-3,-5,-5,-2,7,-5,-1
1615920456042634,0,-3,3,-2,1,-9,-13,-1
1615920456042634,0,2,4,-3,-4,-2,8,-1
1615920456057593,-2,-3,-3,0,2,8,-2,-3
1615920456057593,-2,-1,-3,-4,-1,1,10,-1
1615920456065596,0,0,0,-4,0,-7,-10,-1
1615920456065596,-5,-6,-8,-4,-4,-10,6,-2
1615920456080557,0,2,8,-2,-1,-1,10,0
1615920456080557,0,-1,-3,-7,-1,8,-37,-4
1615920456081530,-1,-1,3,8,1,-3,-5,0
1615920456081530,-3,-3,-2,0,-3,-6,0,-1
1615920456096490,-1,-1,-6,3,0,7,2,1
1615920456096490,-1,-1,3,2,1,-15,-9,-2
1615920456102473,-2,1,-9,-7,1,6,3,-1
1615920456102473,0,-1,5,-4,-5,-9,-4,-3
1615920456117539,0,-2,-7,-10,-2,-2,2,-1
1615920456117539,-2,-3,1,20,0,3,6,-1
1615920456125412,1,0,-4,-6,-1,-4,8,4
1615920456125412,1,3,6,0,2,-2,7,0
1615920456141371,-2,1,5,2,-1,-1,-6,-1
1615920456141371,-1,-1,1,-1,-4,-6,10,0
1615920456141371,-4,-5,-22,-7,0,8,-33,-5
1615920456141371,4,5,20,-7,-2,1,9,1
1615920456156352,0,-1,2,18,3,-9,-7,0
1615920456156352,-2,3,6,0,-3,-2,3,0
1615920456162326,-3,0,9,1,1,2,7,0
1615920456162326,0,-1,-7,-11,-1,8,-2,1
1615920456177334,-3,-2,-5,-3,-4,-6,-8,-2
1615920456177334,1,1,-1,3,5,10,14,1
1615920456193321,1,-1,-3,-3,-1,-18,-3,0
1615920456193321,-2,-4,-10,-5,-3,13,1,-2
1615920456201263,-1,-2,-1,-5,-4,-14,3,-1
1615920456201263,-1,1,0,1,0,-7,-2,-1
1615920456201263,-1,-2,-10,-1,-2,7,4,-3
1615920456201263,2,-2,-2,7,3,0,-3,0
1615920456216222,-1,-2,-1,-7,0,-5,-18,-1
1615920456216222,-1,-1,0,3,2,8,-2,-1
1615920456222206,0,1,2,0,-3,-7,-9,-2
1615920456222206,-1,1,1,-1,-4,-5,6,0
1615920456238162,0,0,-3,1,2,3,8,-1
1615920456238162,0,-1,6,-7,-4,-6,4,1
1615920456245169,-1,-3,0,6,2,8,-1,0
1615920456245169,-2,-2,-9,-1,-1,0,-7,-2
1615920456261128,-1,0,2,-4,-1,1,2,-1
1615920456261128,-2,3,19,2,1,3,-4,0
1615920456262154,-1,-2,-7,-2,2,-4,9,0
1615920456262154,-1,-5,-10,-11,-2,4,-4,1
1615920456277119,1,4,15,4,-4,3,12,2
1615920456277119,-2,-2,-9,-8,-4,-8,-32,-2
1615920456283181,-2,0,-1,8,4,4,2,0
1615920456283181,-1,-3,-3,-2,-2,1,1,0
1615920456298140,-1,-1,-10,-1,4,6,5,-1
1615920456298140,1,-5,-8,-6,-7,-7,8,1
1615920456313109,-2,-2,2,-8,-4,-3,0,-1
1615920456313109,-1,1,-2,3,0,7,-2,-2
1615920456321211,0,0,-1,-1,-3,-4,9,-2
1615920456321211,-3,-4,0,1,0,-15,-17,-3
1615920456322235,0,0,-16,-5,-2,-1,-15,-3
1615920456322235,2,2,18,9,1,-4,0,-1
1615920456337221,-2,0,-6,-17,0,1,4,-3
1615920456337221,-2,-1,1,6,0,0,10,-1
1615920456342184,-2,-3,-1,1,-1,-1,7,0
1615920456342184,-2,0,2,3,2,-2,-1,-1
1615920456358141,-3,-3,-5,-3,-1,0,-12,-1
1615920456358141,2,3,3,-1,2,-5,5,-1
1615920456373436,0,-1,0,-7,-4,5,5,0
1615920456373436,-1,-1,-5,5,-2,-1,3,2
1615920456381307,0,-1,0,2,-1,-7,-6,-1
1615920456381307,-2,-4,-12,-1,2,5,0,-2
1615920456381307,0,-1,11,0,-4,-6,0,0
1615920456381307,-3,-3,-6,-7,-2,-1,0,-4
1615920456397266,-3,-4,4,-3,-3,6,14,1
1615920456397266,4,1,-1,7,5,6,-11,0
1615920456403267,-2,-2,2,-3,-1,-17,6,-2
1615920456403267,0,-2,-6,-2,0,-7,-7,-1
1615920456418194,-2,-2,-1,3,1,2,5,-1
1615920456418194,-3,0,-1,-10,-3,10,10,-1
1615920456425416,-1,-4,-7,-1,1,3,-4,-1
1615920456425416,1,1,8,-5,2,0,1,2
1615920456440397,0,-3,-8,-2,-6,-3,-13,-4
1615920456440397,-3,-3,1,4,2,2,2,1
1615920456441395,-1,4,-1,-5,0,-1,2,-3
1615920456441395,0,-2,-8,-5,-1,-8,5,1
1615920456456202,0,-2,3,5,-1,0,-1,-1
1615920456456202,-1,-4,-8,-19,-2,-2,3,-1
1615920456463185,0,2,10,2,-1,-2,-2,0
1615920456463185,-2,1,-3,14,4,2,3,-3
1615920456477224,1,0,-3,-1,1,3,-12,0
1615920456477224,0,-1,-5,-5,-5,-14,-6,-3
1615920456485206,-1,-1,-1,-4,0,6,11,-2
1615920456485206,0,0,-2,-4,0,2,6,1
1615920456501159,-3,-4,-3,3,1,-8,1,-3
1615920456501159,0,4,3,4,0,6,-16,1
1615920456502053,0,-5,-4,2,-4,-5,-17,0
1615920456502053,-1,0,3,-9,-2,2,2,-2
1615920456517064,-2,1,1,4,0,3,5,1
1615920456517064,0,-1,-1,-1,2,-7,2,-1
1615920456523071,-2,-1,-6,-11,-5,12,8,-2
1615920456523071,-2,0,0,2,-2,-6,-8,-1
1615920456539012,-1,2,-2,0,2,2,2,1
1615920456539012,-2,3,11,10,-3,-2,9,-2
1615920456544989,0,-2,-10,-7,1,-2,-1,3
1615920456544989,1,-4,-9,-5,-4,-2,-7,0
1615920456561921,1,-1,20,2,-3,0,-5,1
1615920456561921,0,-3,-5,-4,-3,7,12,1
1615920456561921,-3,1,-2,2,-2,-15,-25,-2
1615920456561921,-1,-4,-5,-5,1,-4,10,0
1615920456576881,-1,-3,-11,-16,-2,9,-10,-3
1615920456576881,1,0,-3,8,0,-8,6,-2
1615920456583010,-3,-1,2,1,5,2,-4,0
1615920456583010,-1,2,1,4,-5,-3,-35,-2
1615920456598968,0,-1,-15,-4,-3,-4,1,2
1615920456598968,0,1,6,-5,-4,7,5,2
1615920456605408,-2,2,4,0,2,-8,-3,-4
1615920456605408,-3,-6,-3,5,2,-4,12,0
1615920456620810,0,-3,-2,-2,-4,2,4,1
1615920456620810,-1,0,-9,-7,-3,-1,-7,0
1615920456621807,1,1,11,7,-1,-4,2,0
1615920456621807,-4,-1,-2,5,1,4,-4,-4
1615920456636767,1,-1,2,-4,-1,4,18,1
1615920456636767,-4,-4,-6,-9,-4,-13,-1,-2
1615920456642753,1,2,2,10,0,3,-1,-2
1615920456642753,-1,-1,-4,-6,0,1,11,1
1615920456657738,-3,1,3,4,2,-8,-51,-5
1615920456657738,-1,-2,-3,-4,-3,8,1,0
1615920456665705,0,-1,-1,-12,-5,-7,2,-2
1615920456665705,-2,0,-3,2,0,-3,-7,-1
1615920456680675,2,-2,-1,-5,-1,-4,5,0
1615920456680675,0,-3,-7,3,4,6,-11,-4
1615920456681647,0,0,5,11,0,-4,6,2
1615920456681647,3,0,-6,-9,-5,7,-1,2
1615920456696607,-3,0,-1,-7,-1,0,-2,-2
1615920456696607,-3,-1,6,4,-2,-7,2,-3
1615920456702616,-2,-4,-4,-1,-4,-5,14,-1
1615920456702616,-2,-1,-2,0,1,-5,-27,-6
1615920456717579,1,0,1,3,5,8,-6,-2
1615920456717579,-2,2,2,0,-2,-8,0,-2
1615920456725536,0,-1,-6,7,0,3,4,0
1615920456725536,-3,0,9,0,1,-5,12,-4
1615920456740511,0,1,3,-7,-5,-2,8,3
1615920456740511,-1,-5,-9,5,4,6,-4,-4
1615920456747494,1,3,-2,-7,-2,4,8,2
1615920456747494,-1,-2,-4,-5,-5,-9,-13,-2
1615920456756482,-1,-2,0,10,-1,-8,8,-3
1615920456756482,0,-1,5,4,4,0,2,-1
1615920456762458,-2,-3,-3,-12,-3,8,-8,0
1615920456762458,-1,-1,-5,4,-2,4,1,-2
1615920456777416,0,0,3,3,3,-1,17,2
1615920456777416,0,1,4,3,3,9,-24,-4
1615920456785395,0,0,-5,-9,-1,-12,-9,0
1615920456785395,0,1,11,-2,0,4,6,2
1615920456800354,-4,-5,-14,-1,-4,-11,-6,-2
1615920456800354,2,4,6,3,0,6,13,2
1615920456807312,-1,-1,-4,-5,3,6,5,-2
1615920456807312,2,-5,-14,0,-2,-11,-17,1
1615920456823269,-1,0,3,5,4,4,-4,-4
1615920456823269,0,-3,-5,-5,-2,2,-7,1
1615920456824267,0,0,1,2,-1,4,4,1
1615920456824267,-2,0,6,-13,-4,-2,-5,-3
1615920456839227,-2,-4,-9,10,2,-7,-1,0
1615920456839227,0,1,2,4,-5,-5,4,1
1615920456845210,-1,0,2,1,-2,1,-8,-4
1615920456845210,-2,-2,1,-2,-3,-1,10,1
1615920456861180,0,0,12,-4,-3,7,-7,-3
1615920456861180,-1,-2,-11,-16,-3,-7,0,-3
1615920456868155,0,1,2,17,5,-2,3,0
1615920456868155,0,0,0,-3,1,6,3,-1
1615920456877125,0,0,-7,1,-3,-3,-1,1
1615920456877125,-1,-1,-2,-4,-1,-1,6,-1
1615920456883109,0,2,4,2,-1,12,-2,-1
1615920456883109,0,1,2,-3,5,0,4,-1
1615920456899066,-2,-4,-11,-4,-1,-12,-9,-4
1615920456899066,-1,1,16,-3,-2,-3,3,-2
1615920456905051,0,0,-3,-8,-6,-3,3,-2
1615920456905051,1,0,3,12,-1,4,-17,-1
1615920456920012,-1,-4,-11,-3,9,12,13,-1
1615920456920012,-2,-1,1,0,-3,-16,-3,-2
1615920456927989,-1,-3,1,-1,-4,-3,6,0
1615920456927989,1,1,-4,-6,-2,8,5,1
1615920456942949,0,0,4,-3,-7,-8,1,0
1615920456942949,0,-1,-5,-8,-2,2,-16,1
1615920456943947,-2,-3,2,5,5,-1,-4,-2
1615920456943947,-3,-1,-5,2,2,-6,11,-1
1615920456958906,0,0,2,1,-3,1,-2,1
1615920456958906,-1,-5,-13,-3,0,1,16,0
1615920456964890,1,4,16,-3,-5,-6,-35,-1
1615920456964890,-1,1,12,-1,-1,-1,9,-1
1615920456979852,-2,-2,-2,-10,-3,-3,0,-1
1615920456979852,1,0,4,11,6,1,7,2
1615920456987829,1,-2,-5,2,-2,4,2,0
1615920456987829,-2,-2,-6,-8,-3,-8,2,-2
1615920457003791,0,2,3,9,2,3,-11,-2
1615920457003791,-2,-2,-2,-11,-8,-3,3,1
1615920457003791,0,-1,-13,-7,3,-4,-5,-2
1615920457003791,-1,-4,0,1,1,7,12,0
1615920457019747,-1,0,6,-6,-6,0,2,1
1615920457019747,0,1,-9,0,1,5,-4,-1
1615920457025729,-2,-2,13,11,-2,-5,9,-3
1615920457025729,-3,-1,-4,2,-1,-8,8,-1
1615920457040689,1,2,-10,1,6,4,-9,1
1615920457040689,-2,-4,6,-7,-7,6,-3,0
1615920457047670,-2,-3,-17,-10,-4,-4,-1,-2
1615920457047670,-3,0,14,3,-3,0,-1,-3
1615920457070466,-1,-2,4,-5,-4,-7,4,0
1615920457070466,-1,3,1,3,3,-4,4,0
1615920457071463,0,-3,-5,-4,3,1,-2,1
1615920457071463,0,-1,-5,0,-2,0,0,-4
1615920457079456,-2,-2,0,1,2,3,-3,-3
1615920457079456,-1,-1,-1,-7,-2,-9,3,0
1615920457085444,0,-2,3,1,1,9,-29,-3
1615920457085444,-1,-1,-12,-5,0,-11,2,1
1615920457100435,2,5,19,6,-2,8,5,1
1615920457100435,-1,-4,-15,0,-3,-4,-1,-1
1615920457108221,-3,0,-2,-1,-1,-11,1,-3
1615920457108221,1,3,7,0,0,-4,-12,-1
1615920457131153,-1,-2,-9,-2,1,0,0,2
1615920457131153,-5,-4,0,5,-1,7,5,-4
1615920457132120,-2,-3,-2,-1,0,-5,-15,-3
1615920457132120,-2,-3,-3,-6,0,5,-16,-2
1615920457139102,0,2,-1,8,-3,-6,8,0
1615920457139102,0,-2,-3,1,5,-3,13,-1
1615920457145109,-3,0,0,-5,-2,2,18,0
1615920457145109,-2,0,14,10,-1,6,-40,-4
1615920457160164,0,-1,0,-15,-5,4,10,0
1615920457160164,1,-1,4,10,2,-16,-27,-2
1615920457168147,-1,-1,-5,-6,-1,4,-1,-1
1615920457168147,1,-1,-3,2,-3,-4,14,1
1615920457183217,-2,-2,-4,-4,4,-3,-3,-2
1615920457183217,-1,0,-2,0,-3,3,-16,-2
1615920457184121,2,5,17,-2,0,2,18,5
1615920457184121,-2,-7,-12,-1,-2,7,0,-1
1615920457199146,1,3,0,-1,1,-1,6,1
1615920457199146,0,-1,-6,-6,0,-2,2,0
1615920457205132,-3,0,-6,1,-2,-4,-4,-3
1615920457205132,2,0,2,-1,-1,-4,14,2
1615920457220225,-4,-3,-5,-3,-1,1,-50,-7
1615920457220225,-2,2,7,-4,-3,-6,10,-1
1615920457228257,-5,-5,-15,5,1,0,2,-3
1615920457228257,2,3,6,4,0,-7,13,4
1615920457243262,-2,-3,0,-2,-1,1,0,-4
1615920457243262,0,1,3,-5,-3,0,0,0
1615920457244161,0,-3,-5,-2,-5,-4,-3,-2
1615920457244161,0,1,-8,1,-1,-16,-11,-3
1615920457259165,0,1,5,2,-3,-6,6,1
1615920457259165,-2,-3,-4,-7,0,6,-3,-2
1615920457281973,0,0,-3,0,-3,-1,5,-2
1615920457281973,-2,-4,0,-1,1,1,-5,-1
1615920457282966,-1,0,5,4,-2,-1,13,2
1615920457282966,-1,-2,-6,-4,0,-2,-5,-2
1615920457287953,-1,-2,-5,-8,-4,3,-1,1
1615920457287953,-2,2,-2,2,0,4,15,-1
1615920457302913,0,0,15,-2,-1,-6,-10,-1
1615920457302913,-2,0,-3,3,0,2,6,-2
1615920457303910,2,-1,7,2,-1,2,-1,1
1615920457303910,-1,-1,1,0,6,-6,-2,-1
1615920457318870,1,-3,-14,2,-1,1,14,4
1615920457318870,-2,1,15,2,-3,0,-15,-1
1615920457324854,0,-1,-7,5,1,4,14,0
1615920457324854,-2,1,5,-3,-4,-4,-12,-3
1615920457339838,-2,-2,9,-10,-5,-3,1,-3
1615920457339838,0,-2,-7,13,6,5,22,1
1615920457348268,1,-3,-5,-9,-2,-2,-10,-1
1615920457348268,-1,0,-7,3,0,13,8,0
1615920457363234,-2,-1,-5,-3,-1,-4,5,0
1615920457363234,0,0,-3,-7,-4,0,-1,-3
1615920457364227,0,0,1,2,1,-3,3,2
1615920457364227,-1,-2,0,-10,-3,9,-2,-1
1615920457379202,0,-3,-9,-6,-4,-2,-4,-3
1615920457379202,2,3,5,8,4,5,-4,0
1615920457385192,-1,1,4,7,-2,-16,-6,-2
1615920457385192,0,-2,-7,-13,-1,2,-3,1
1615920457400149,-2,0,-6,6,-4,-9,-16,0
1615920457400149,-1,-3,-7,-6,2,-2,10,-2
1615920457415781,-2,-1,6,-4,-5,6,3,0
1615920457415781,-2,-2,-3,2,0,2,5,-2
1615920457423764,-1,-2,0,-1,1,3,-19,-2
1615920457423764,2,3,0,-7,-6,-18,-8,4
1615920457423764,-1,-1,3,-4,2,3,-5,-2
1615920457423764,-3,-2,-3,-3,-3,-6,10,-1
1615920457439769,-1,-2,-3,11,4,5,18,1
1615920457439769,0,-1,-4,-1,-3,6,-6,-3
1615920457444764,-1,1,5,-3,5,-4,-18,-1
1615920457444764,-1,-1,-3,-6,-5,7,4,0
1615920457459928,-2,-4,-7,4,-3,-14,-4,-3
1615920457459928,-1,0,13,-2,-1,0,-1,1
1615920457467922,-1,-2,-14,-7,-6,3,11,-1
1615920457467922,2,2,-1,1,-2,-13,-22,-2
1615920457483871,-1,0,-2,-7,0,11,-1,-1
1615920457483871,0,-4,-4,-7,-4,-10,6,-1
1615920457483871,-3,-5,-5,5,4,2,-1,-1
1615920457483871,-2,1,3,9,0,6,13,1
1615920457499808,2,3,-5,-6,0,0,-12,0
1615920457499808,-5,-6,-9,0,1,0,-4,-3
1615920457505713,0,5,25,2,-3,0,-2,2
1615920457505713,-2,-4,-9,5,5,3,8,-2
1615920457528941,-1,-1,-1,-6,-2,-4,-6,-3
1615920457528941,0,-1,2,18,2,-2,4,0
1615920457528941,-1,-6,-18,-11,-3,-5,9,-1
1615920457528941,3,2,20,6,0,-4,-8,3
1615920457543903,-1,0,-4,-9,-3,6,0,-2
1615920457543903,-1,-2,5,-9,-3,-1,7,0
1615920457543903,-2,-1,-5,5,-2,-5,-41,-5
1615920457543903,1,-1,-8,5,4,2,-1,-3
1615920457559011,-1,-2,-5,-6,-5,-4,10,-2
1615920457559011,2,1,-2,3,1,-4,-5,0
1615920457564996,-1,-3,7,4,-1,2,7,0
1615920457564996,-1,1,-8,-19,-5,-8,-21,-3
1615920457579956,0,-3,4,13,5,1,15,2
1615920457579956,-1,0,-5,0,-1,5,-5,0
1615920457587935,0,1,-7,-9,-3,-5,2,-2
1615920457587935,-3,-1,0,-7,-4,1,-4,-2
1615920457604805,0,1,5,8,4,-4,6,1
1615920457604805,0,-1,-2,-10,-3,9,-12,-2
1615920457605737,-2,-4,-5,-2,-3,-9,9,-3
1615920457605737,0,1,-3,4,0,-1,5,1
1615920457618917,-2,-1,4,-7,-1,5,8,0
1615920457618917,-3,-1,3,0,-2,2,-31,-3
1615920457624907,-2,0,-13,0,-2,-11,-3,-1
1615920457624907,-1,0,10,-6,0,-2,2,-1
1615920457639862,-1,-1,0,-1,-2,-3,-8,-1
1615920457639862,-1,-4,-7,4,1,10,21,-2
1615920457647841,0,0,-13,-12,-5,-1,-12,0
1615920457647841,-1,-4,5,3,-1,0,-2,-1
1615920457663897,0,-2,-6,-1,-2,-3,-6,-3
1615920457663897,-2,3,1,-9,3,-2,7,-1
1615920457663897,-2,0,1,3,2,-2,0,-1
1615920457663897,0,-3,-9,0,-2,-2,4,0
1615920457679838,0,0,-4,-9,-1,0,1,-1
1615920457679838,0,-3,-2,7,0,8,18,2
1615920457684850,-2,0,9,-2,-5,-8,-46,-4
1615920457684850,-1,0,-5,4,2,-2,-5,-1
1615920457700038,-3,-2,-6,-1,4,-2,-3,-2
1615920457700038,-1,3,7,3,0,-6,8,2
1615920457708269,1,0,7,6,2,6,27,1
1615920457708269,1,0,-8,-12,-5,1,-4,1
1615920457723045,-1,-2,-1,-3,-3,-3,-14,-3
1615920457723045,0,-1,-4,5,1,3,-7,-1
1615920457730161,-2,-3,5,3,2,-1,15,-3
1615920457730161,-1,0,-2,-3,-2,-18,-19,2
1615920457739030,1,0,5,8,-3,8,27,5
1615920457739030,0,2,-5,-12,-4,-6,-12,-2
1615920457745038,0,-2,-5,-1,1,15,16,1
1615920457745038,-2,-3,3,5,-1,-4,-1,-2
1615920457768954,1,-2,-2,1,-1,-12,-4,0
1615920457768954,-2,0,8,-9,-5,1,-4,-1
1615920457768954,0,1,-4,3,2,2,9,0
1615920457768954,-2,-1,-2,-5,-2,8,7,-2
1615920457783160,-1,-2,-1,7,-2,-3,-3,0
1615920457783160,-2,-5,-2,-7,0,-4,-12,-2
1615920457790059,0,0,0,0,-6,10,9,0
1615920457790059,-2,-4,-12,3,4,-15,-7,-3
1615920457799011,0,3,14,0,-1,3,-5,-1
1615920457799011,-1,-2,-5,-1,0,0,-1,-1
1615920457804995,0,-1,2,-5,-2,-8,3,0
1615920457804995,-1,3,2,5,1,12,-15,-2
1615920457820012,-2,-2,-4,-6,-1,-7,19,0
1615920457820012,1,2,12,9,4,-3,8,-3
1615920457827994,-1,-6,-10,-7,1,3,6,0
1615920457827994,-1,-1,12,1,0,3,8,-1
1615920457842975,-2,-2,-8,-1,-4,-1,-6,-1
1615920457842975,-1,1,5,-8,-2,1,-8,-2
1615920457850163,1,0,3,6,3,-6,-5,-1
1615920457850163,0,-2,-10,-3,-1,-3,10,-1
1615920457866148,-1,-1,0,0,2,7,-11,-1
1615920457866148,-1,0,-1,-8,-6,-6,-2,1
1615920457867223,-2,-4,-11,3,0,-8,-1,-2
1615920457867223,0,-1,5,-2,-1,-1,17,0
1615920457882125,-1,1,2,0,1,-2,-34,-4
1615920457882125,-2,-2,-2,-1,-2,1,-1,-1
1615920457888109,0,1,0,-8,-3,-2,-5,0
1615920457888109,0,-4,-13,-1,-3,-7,12,0
1615920457903068,-2,-1,5,9,3,0,-5,-1
1615920457903068,0,-1,2,7,-1,1,20,2
1615920457910147,-2,-2,-3,-5,1,12,-3,-1
1615920457910147,-2,0,7,-6,-4,-12,-17,-3
1615920457926292,-1,-4,-12,-5,-3,-10,-1,-1
1615920457926292,-1,-1,-4,0,1,2,-11,-4
1615920457927267,-1,-2,-2,3,0,5,6,-1
1615920457927267,0,-1,-2,5,1,3,0,-3
1615920457940104,2,2,2,-10,-3,3,9,1
1615920457940104,-1,-5,-6,0,-1,-4,16,2
1615920457948063,1,4,16,0,1,-9,-14,1
1615920457948063,-1,-2,-7,0,-4,1,-3,1
1615920457963019,-1,2,8,0,1,0,2,-4
1615920457963019,0,-1,-11,-5,-3,-4,5,2
1615920457970000,0,-1,-2,10,-1,4,1,-1
1615920457970000,0,-2,5,4,4,-5,-2,1
1615920457985958,-1,2,-3,-8,-2,5,3,1
1615920457985958,-2,-2,-5,3,-1,-8,-12,-2
1615920457986964,-2,-3,-4,1,-4,-1,0,-2
1615920457986964,1,0,-1,-8,-1,8,9,2
1615920457999946,0,-6,-4,-2,-2,-4,0,-3
1615920457999946,2,1,2,-1,0,4,-2,2
1615920458007977,0,3,-1,-2,0,9,-7,-1
1615920458007977,-2,-3,5,5,-3,-18,14,-2
1615920458022966,-1,-2,-4,-1,1,-2,14,0
1615920458022966,-2,-4,-3,-3,0,1,-12,-1
1615920458038817,0,-5,-11,-7,-1,4,8,-3
1615920458038817,0,1,6,-2,-1,9,-8,0
1615920458046799,-1,1,-2,-5,-5,-5,-6,-1
1615920458046799,-2,-4,-7,3,4,0,8,-1
1615920458047799,0,0,-3,-2,-3,-7,2,2
1615920458047799,-2,2,5,-1,-1,10,-8,-2
1615920458060781,-2,-2,-5,-1,4,-7,-4,-2
1615920458060781,-1,2,12,4,0,-1,-7,-3
1615920458067848,-1,0,-4,-2,-4,-3,-4,-1
1615920458067848,-1,1,10,2,-1,-3,2,2
1615920458082698,-1,-5,-5,2,0,5,-15,-1
1615920458082698,1,4,0,-5,-2,-7,-9,-2
1615920458090678,-1,0,13,1,-2,2,8,-1
1615920458090678,0,-4,-15,-8,-2,2,-10,-2
1615920458106266,1,2,2,2,-1,-9,6,1
1615920458106266,-1,-2,7,6,-3,0,-14,-1
1615920458106266,-2,-1,1,0,-3,-17,-11,-4
1615920458106266,-3,-4,-5,-4,0,2,24,-1
1615920458128846,-3,-1,-2,0,0,5,-2,-3
1615920458128846,-1,-2,-3,-5,-3,-8,-1,0
1615920458128846,0,-1,-6,-2,0,2,7,1
1615920458128846,1,0,6,3,-2,5,-39,-4
1615920458144808,-3,-1,-2,0,-3,-14,7,-1
1615920458144808,0,1,-3,-7,-3,7,2,-4
1615920458149816,-2,-3,4,13,6,4,-4,-1
1615920458149816,-1,0,-2,2,0,-4,13,1
1615920458165751,1,0,4,-4,-3,9,7,0
1615920458165751,-2,-2,-15,-5,-2,-7,-11,-2
1615920458166748,-2,-4,-1,-1,-2,1,-6,-2
1615920458166748,0,-1,-7,-11,-4,-1,0,0
1615920458181853,-1,0,2,3,0,-4,-10,1
1615920458181853,0,0,5,-2,2,4,19,4
1615920458187837,-1,-3,-10,-9,-3,-13,-11,-2
1615920458187837,-1,1,5,9,3,7,-8,1
1615920458203188,-2,-3,-2,0,-3,-14,25,-1
1615920458203188,0,-2,0,5,2,2,-20,-2
1615920458210189,-1,-3,-4,-17,-10,-2,6,0
1615920458210189,-1,1,2,-2,-1,5,5,-2
1615920458226173,1,-1,-10,-2,0,9,4,2
1615920458226173,-2,0,9,8,-2,-11,0,-2
1615920458227170,1,2,5,0,1,-3,-1,-1
1615920458227170,-3,-3,-7,-10,-3,1,0,-3
1615920458242125,0,-1,-1,4,-1,4,-8,-2
1615920458242125,-1,-2,-9,-2,-2,-3,-3,-2
1615920458248201,1,4,13,-8,-1,12,4,0
1615920458248201,0,0,6,10,1,-12,0,0
1615920458263100,0,-2,-1,0,0,4,-13,1
1615920458263100,-2,2,-2,-8,0,-14,11,-2
1615920458270075,-4,-5,-5,11,2,8,2,0
1615920458270075,-1,-2,-7,-2,-1,-3,9,1
1615920458286033,-1,1,4,-2,2,-2,-2,-3
1615920458286033,1,-4,-6,-11,-4,7,-7,1
1615920458287032,0,0,-6,-3,-1,-4,1,-2
1615920458287032,-1,-2,3,6,0,-8,-4,-4
1615920458302117,-1,0,-2,4,0,9,8,1
1615920458302117,-2,-2,3,-5,-2,4,-1,1
1615920458308106,-1,-1,6,10,2,-11,3,-2
1615920458308106,-1,-3,-11,-15,-6,2,-7,-1
1615920458323065,-1,-4,2,-3,-3,2,7,-2
1615920458323065,0,4,7,4,0,2,7,-1
1615920458330103,0,-1,-2,0,-3,-10,-13,0
1615920458330103,0,-2,-1,-4,1,-3,7,1
1615920458346068,1,-1,-1,-3,0,-1,-16,-1
1615920458346068,-1,-6,-11,-2,-1,14,15,0
1615920458347066,0,1,0,1,0,-15,4,0
1615920458347066,-1,1,3,4,1,0,-14,-2
1615920458362020,-2,-2,-7,-14,1,5,2,0
1615920458362020,-1,-4,5,16,1,6,6,0
1615920458368008,-1,7,9,-6,-4,-9,-17,-2
1615920458368008,1,-4,-5,2,-2,2,2,1
1615920458382965,0,0,-2,-4,-2,-1,-16,-2
1615920458382965,-3,-1,-1,-6,0,-16,-1,-3
1615920458389946,-3,-4,-7,0,2,15,-5,0
1615920458389946,1,2,1,-4,-3,1,11,-1
1615920458406438,-2,-2,-1,-4,-1,0,-7,-2
1615920458406438,1,-1,6,5,-3,-5,2,0
1615920458406438,0,-3,-11,-11,0,-6,-15,-3
1615920458406438,-1,0,2,-2,0,6,1,0
1615920458428825,0,0,6,12,4,-3,0,-3
1615920458428825,0,-2,-8,-10,-2,-1,-24,-3
1615920458429400,-2,1,13,14,1,5,13,1
1615920458429400,0,-2,-11,-5,1,2,2,1
1615920458442392,-1,1,3,-3,0,2,16,3
1615920458442392,-2,-1,1,3,0,-7,-41,-4
1615920458450379,0,-2,-5,-8,0,6,16,2
1615920458450379,-2,-3,-3,-3,-4,-18,-20,-5
1615920458465312,-1,1,-8,-1,-3,5,16,3
1615920458465312,-4,-1,3,1,0,-8,3,-2
1615920458473334,-1,-1,-7,-5,-3,1,0,-1
1615920458473334,1,-2,-3,7,3,0,1,1
1615920458482012,-1,-1,-4,-11,-5,-8,-12,-2
1615920458482012,0,1,-3,-7,-3,4,16,-1
1615920458488018,-2,0,9,9,6,12,-4,-2
1615920458488018,-1,-1,-3,5,-2,-12,2,-2
1615920458502953,0,-3,1,-3,-4,1,-7,0
1615920458502953,-1,-1,-4,-5,-1,4,12,1
1615920458510371,-1,-3,-9,-5,-4,2,0,-4
1615920458510371,-1,0,0,-1,3,-5,-3,1
1615920458535295,0,-2,1,6,-2,-4,-1,-2
1615920458535295,-2,1,-3,0,-2,-3,-4,-2
1615920458536292,1,2,4,7,-3,0,-2,2
1615920458536292,-1,-1,-5,-11,-2,5,-3,-3
1615920458541278,-3,0,3,2,-2,-13,4,-4
1615920458541278,1,-1,-6,4,3,6,6,1
1615920458548264,-2,-5,-11,-3,-3,-11,-3,-1
1615920458548264,-2,-1,-2,-5,-2,6,9,-1
1615920458563224,2,4,15,5,3,3,-14,-1
1615920458563224,1,-1,1,11,0,-7,0,-2
1615920458570264,-1,-5,-7,-6,0,-5,-6,-2
1615920458570264,1,0,7,4,-5,6,18,2
1615920458593344,0,1,-5,-7,-1,-2,-14,-2
1615920458593344,-2,-2,-3,4,1,-2,2,-1
1615920458594318,-1,-1,-6,-4,-4,4,-4,-2
1615920458594318,2,3,8,-3,-2,-3,22,4
1615920458610100,-2,-4,-9,-3,-6,3,0,-3
1615920458610100,-1,1,3,1,2,-1,-5,4
1615920458611100,-3,-5,-5,-8,1,4,6,-3
1615920458611100,-1,0,-11,-1,0,5,-17,-2
1615920458623073,1,1,13,8,0,-6,5,1
1615920458623073,1,-4,-9,-8,-5,-10,-18,-3
1615920458630049,0,2,3,-4,-2,1,33,4
1615920458630049,-2,-2,1,-3,-2,-11,-18,-3
1615920458645009,-1,-3,-2,6,3,4,10,1
1615920458645009,2,0,-3,-1,2,6,-15,-2
1615920458653039,0,3,8,-1,-4,1,23,2
1615920458653039,-1,0,-4,-6,0,-20,-19,-3
1615920458662038,-2,-1,1,10,-1,5,0,-1
1615920458662038,-3,-2,5,1,4,6,17,-1
1615920458668025,2,3,5,7,-1,-8,-9,2
1615920458668025,-2,-3,-7,-6,-2,12,13,1
1615920458683284,-4,-3,-10,-7,0,-11,-10,-1
1615920458683284,-3,-1,4,-1,-3,6,2,0
1615920458690197,0,1,1,-5,-1,0,-14,-2
1615920458690197,0,-1,-4,0,1,0,11,-1
1615920458705133,-1,0,-4,2,1,6,-32,-3
1615920458705133,2,-1,1,-1,-3,-10,2,2
1615920458713115,-1,-3,-1,-1,1,-2,-11,-1
1615920458713115,0,1,0,-2,2,6,6,0
1615920458722088,0,2,15,6,-3,2,6,2
1615920458722088,-2,0,-6,4,1,5,-4,-2
1615920458728097,1,-5,-7,-1,0,-4,-8,0
1615920458728097,-3,1,6,-3,-10,-1,-7,-2
1615920458743059,-1,-3,-1,0,1,-1,8,-1
1615920458743059,-2,-2,-11,-3,1,-1,-6,-2
1615920458758159,-2,0,0,7,1,0,6,-1
1615920458758159,-1,-3,0,-4,-2,0,-2,-1
1615920458765144,-1,0,-2,-7,0,2,8,0
1615920458765144,1,0,-1,-4,-3,-11,-34,-2
1615920458773244,-3,-3,7,0,-2,8,-10,-2
1615920458773244,-1,0,-2,-2,-2,-9,1,-4
1615920458782211,0,-1,-6,-4,-3,-3,4,2
1615920458782211,1,-2,2,-6,-1,-4,12,0
1615920458788198,0,2,-4,1,2,5,-7,-2
1615920458788198,-3,-6,-8,7,2,4,-7,0
1615920458803156,1,2,3,-10,-4,-10,3,-2
1615920458803156,-2,-1,3,-3,-4,5,15,-2
1615920458810157,-1,-3,-4,-4,1,-1,-2,-1
1615920458810157,-2,-2,-1,0,0,-10,-8,-4
1615920458825163,1,-1,-11,2,2,-1,9,1
1615920458825163,-3,0,12,0,-4,4,6,0
1615920458833231,0,0,-4,1,-1,-6,-8,0
1615920458833231,0,-1,0,0,0,4,-1,0
1615920458848996,-3,-6,-12,-12,-4,-1,21,0
1615920458848996,4,4,14,1,1,4,-59,-4
1615920458849251,-2,1,4,-2,-5,-17,8,0
1615920458849251,-2,-2,-10,-3,4,2,-1,0
1615920458863296,0,2,14,10,1,3,5,-2
1615920458863296,-1,-1,-8,-7,0,-2,12,1
1615920458870254,-3,-5,-12,-5,0,15,-4,-2
1615920458870254,2,4,10,8,2,-10,-1,1
1615920458885432,-2,-4,-10,-2,-2,-6,-17,-3
1615920458885432,-1,0,0,0,-4,-10,16,0
1615920458892341,-1,0,5,-10,-2,0,-9,-2
1615920458892341,-1,-1,6,8,-1,2,4,-2
1615920458909002,-2,-3,-4,-1,2,0,0,0
1615920458909002,0,0,-7,-2,2,-1,0,1
1615920458909002,-1,0,12,8,0,-1,2,-4
1615920458909002,2,1,-2,-12,-2,0,-1,3
1615920458922986,0,-6,0,-2,-5,2,-1,0
1615920458922986,-1,-2,-9,8,2,-2,8,-1
1615920458930217,0,1,0,-4,0,1,-20,-1
1615920458930217,-3,2,9,-2,3,-3,-1,-3
1615920458945279,-2,-5,-13,-12,-7,-6,5,-2
1615920458945279,-2,-2,-6,-11,0,-2,5,-1
1615920458952379,-1,-2,4,13,2,-1,4,0
1615920458952379,-2,-3,-7,3,1,9,-3,0
1615920458968681,1,2,5,7,1,-7,-4,-1
1615920458968681,-1,-1,5,2,0,-7,3,-2
1615920458976665,-1,1,-11,-9,-3,8,21,1
1615920458976665,-2,-1,7,-4,-1,-4,-14,-1
1615920458982649,-1,2,6,12,1,3,-2,-2
1615920458982649,-2,-1,-5,-1,-1,5,0,0
1615920458990624,-1,-2,-9,3,3,-6,9,-1
1615920458990624,-1,-1,4,-5,-8,3,-1,0
1615920459005584,-1,1,-2,-2,4,4,-9,0
1615920459005584,-2,-4,-5,3,-4,0,0,-1
1615920459012783,0,2,7,-10,0,-9,7,2
1615920459012783,-3,-2,-4,1,-1,-2,-2,-2
1615920459036621,-1,-3,-6,-6,-4,-3,-8,-2
1615920459036621,2,2,10,7,2,3,-6,0
1615920459038615,-2,-3,-3,1,1,-4,-7,0
1615920459038615,-1,-6,-17,-5,-2,-1,-5,-2
1615920459042605,2,5,14,2,-5,1,20,1
1615920459042605,-3,-1,-8,-17,-6,-1,-19,-4
1615920459050690,-1,-1,5,10,4,0,3,1
1615920459050690,-1,2,1,0,1,6,-11,0
1615920459065544,-3,-2,-9,2,4,-10,-7,0
1615920459065544,2,1,8,-4,-5,-14,6,-1
1615920459072530,0,2,5,4,-2,1,6,0
1615920459072530,-2,-3,-3,-5,3,1,-5,-4
1615920459088583,-2,-5,-8,-9,-3,10,2,-1
1615920459088583,-1,0,3,5,0,1,3,0
1615920459089579,-2,-3,-9,-11,-5,-2,-4,1
1615920459089579,1,-1,-1,7,2,-1,16,0
1615920459102628,0,3,16,-5,-1,3,-8,-2
1615920459102628,-2,-1,-4,9,-3,-2,22,-1
1615920459118478,-4,-6,-5,-6,2,-2,-48,-7
1615920459118478,0,1,-4,-10,-1,-1,4,0
1615920459126461,2,0,-10,4,4,2,4,2
1615920459126461,-3,-4,-3,-6,-5,-4,12,-2
1615920459132549,0,0,0,-6,-1,5,-10,-3
1615920459132549,-2,0,-1,7,-1,-5,-3,-2
1615920459148400,-2,-1,2,-2,-3,-12,-13,-2
1615920459148400,-2,0,-4,5,6,11,6,-1
1615920459149396,-2,-3,-3,-11,-6,-13,10,2
1615920459149396,-1,1,0,0,-1,5,-1,0
1615920459162362,0,0,3,2,1,-1,2,-2
1615920459162362,-1,-2,-6,-4,-1,9,1,0
1615920459179031,0,-2,-8,0,-4,-10,-7,-2
1615920459179031,1,1,7,6,-1,-1,1,1
1615920459185110,1,0,-5,-9,1,4,-8,-1
1615920459185110,-2,-3,0,5,-3,-7,-8,-3
1615920459193019,1,1,-1,3,3,1,2,-1
1615920459193019,-3,-2,1,1,1,-2,0,-2
1615920459208901,-3,-3,-13,-2,3,-6,-2,-2
1615920459208901,3,5,18,8,-3,7,1,2
1615920459208901,1,-3,0,-5,-2,1,11,0
1615920459208901,-1,0,3,4,-1,-3,-14,-1
1615920459222894,-2,-3,-4,-7,-4,-1,1,-2
1615920459222894,-2,-3,-6,-6,3,2,-14,-2
1615920459230845,-1,1,2,5,-4,-13,2,-2
1615920459230845,-1,-2,-5,-1,1,13,20,2
1615920459245806,1,-3,1,-4,-5,-8,-1,-3
1615920459245806,-1,-3,-2,-2,4,2,0,2
1615920459253022,1,2,1,-5,0,5,-6,-1
1615920459253022,-1,0,2,-1,-4,-3,20,0
1615920459269018,0,-2,-3,1,2,7,6,0
1615920459269018,-1,-2,-10,-5,-5,-2,-5,-1
1615920459269018,-2,-1,1,-6,0,-8,15,2
1615920459269018,0,-1,9,20,5,0,-10,-3
1615920459292974,0,3,16,-2,-1,3,0,-1
1615920459292974,-1,-1,-14,-2,-3,-6,1,-1
1615920459292974,-2,-1,10,7,-3,2,-5,-1
1615920459292974,-2,-2,-10,-14,-4,-5,-9,-1
1615920459304951,-2,-2,-2,7,1,1,5,-1
1615920459304951,-3,-2,-6,-8,3,-4,0,-3
1615920459312906,1,0,-8,-7,-1,10,15,4
1615920459312906,0,-1,-3,-1,-5,-9,-19,-2
1615920459328966,-2,-3,0,6,-4,-18,-13,-2
1615920459328966,-2,-3,-4,-3,-1,1,-6,-2
1615920459328966,1,-2,3,-5,2,1,13,-2
1615920459328966,0,-2,5,5,-3,8,-2,1
1615920459344932,-4,-2,-9,-10,-4,2,0,-2
1615920459344932,1,1,0,2,1,-7,-2,0
1615920459350017,-1,-1,-3,4,-1,-1,-9,-3
1615920459350017,0,0,6,1,1,3,11,2
1615920459364943,0,2,10,-2,0,-3,-8,-1
1615920459364943,-2,-1,-3,0,-2,1,30,3
1615920459372922,-3,-3,-14,-9,-1,6,-13,-3
1615920459372922,-1,-3,-5,-3,-1,-12,-5,-2
