timestamp,emg1,emg2,emg3,emg4,emg5,emg6,emg7,emg8
1615920427446570,1,0,-2,8,0,1,-3,1
1615920427446570,-2,-3,-3,-1,0,5,10,2
1615920427447568,-2,1,-1,-10,-2,-9,-41,-4
1615920427447568,-6,-1,-2,21,12,-5,4,-2
1615920427451558,9,-1,0,-9,-5,1,-3,0
1615920427451558,-3,1,-2,-4,-1,6,4,-2
1615920427459537,-1,0,0,-5,-4,-1,9,0
1615920427459537,2,1,-1,-5,-7,-7,3,0
1615920427466520,-8,-1,-3,4,1,2,-5,-1
1615920427466520,-2,0,1,-4,-4,-10,-6,-2
1615920427482503,-3,0,1,2,5,-1,2,-3
1615920427482503,7,1,0,-8,-3,2,-2,2
1615920427489496,-3,-3,0,1,3,0,4,0
1615920427489496,-1,-1,-4,-4,-14,2,-6,-11
1615920427513396,-16,-5,-3,6,6,-12,1,0
1615920427513396,-1,-2,0,-3,-3,-2,2,-1
1615920427514389,0,0,-2,-8,1,-1,-2,-4
1615920427514389,-2,-2,-3,-9,-7,-4,-1,2
1615920427520378,5,1,11,6,1,14,4,0
1615920427520378,-3,-3,-1,-2,2,-7,-9,-3
1615920427526363,5,-2,-6,-4,-1,-12,-1,-1
1615920427526363,-3,-2,-1,9,2,-2,-9,-1
1615920427542347,3,0,-6,3,-1,3,11,0
1615920427542347,0,0,6,-5,-3,0,2,-5
1615920427549297,-4,0,-1,4,3,8,2,-3
1615920427549297,-3,-2,3,7,4,-6,4,3
1615920427565253,3,2,-8,-14,-17,-3,0,-1
1615920427565253,-1,0,7,0,4,9,3,0
1615920427567248,-1,-1,-2,0,-1,-7,-3,-2
1615920427567248,3,-1,-2,0,2,0,-2,6
1615920427580306,2,1,-2,2,1,-5,-3,-4
1615920427580306,-3,-1,-3,-5,-4,2,-1,0
1615920427587195,0,-2,-4,-10,-3,1,-8,-2
1615920427587195,-5,1,14,16,3,-3,1,1
1615920427602201,13,0,2,-6,-1,-1,-5,5
1615920427602201,-6,-4,-7,-2,1,-3,29,0
1615920427609308,-3,-2,1,13,5,3,-5,-6
1615920427609308,-2,0,1,-8,-4,-2,4,1
1615920427625379,-1,-2,-3,3,2,9,-2,0
1615920427625379,2,-1,-3,-7,-5,-1,0,-2
1615920427627338,-2,0,4,14,0,-8,2,0
1615920427627338,1,-1,-4,-9,-2,2,-6,-3
1615920427640300,-3,-5,0,-9,-5,-4,7,1
1615920427640300,3,-2,-5,-4,-2,4,-5,3
1615920427646311,3,0,1,-3,-4,-3,-2,-1
1615920427646311,1,-2,-5,13,1,1,-4,-3
1615920427662243,-3,-3,-1,0,7,1,0,5
1615920427662243,-3,-2,-3,1,-4,2,-8,-6
1615920427669224,-1,0,-1,-13,-8,-9,-3,0
1615920427669224,0,-1,5,0,-2,-8,1,-3
1615920427693160,-10,-1,-5,-6,-1,0,1,1
1615920427693160,9,-1,-2,7,1,1,1,1
1615920427694157,-11,-3,0,-6,-3,0,-5,3
1615920427694157,10,1,-7,-14,-2,-2,-8,-1
1615920427699162,-2,1,4,13,5,5,0,-1
1615920427699162,-5,2,5,1,-3,-14,-11,1
1615920427708119,-1,-2,-2,-7,-2,6,11,-2
1615920427708119,-2,-2,-2,-8,-1,2,2,-1
1615920427723080,2,0,-4,4,0,-5,-10,-2
1615920427723080,-4,-2,-5,-5,1,7,2,-1
1615920427729064,-1,1,4,0,1,3,2,-1
1615920427729064,-1,1,0,5,4,-9,-12,0
1615920427746023,-4,-4,-9,-1,5,-1,3,-14
1615920427746023,2,0,1,4,-4,-2,0,2
1615920427748013,12,1,-1,-6,-4,-3,0,2
1615920427748013,-3,-3,-3,-6,-3,4,4,-2
1615920427759981,0,-2,-4,-2,1,-2,-3,0
1615920427759981,-6,-1,-4,3,1,-4,-4,0
1615920427767960,10,0,-1,-7,-6,-3,0,-1
1615920427767960,-1,-2,0,-3,-1,9,-1,0
1615920427790007,1,-2,0,0,-1,-3,2,-1
1615920427790007,-2,0,0,8,7,-2,-3,-2
1615920427806859,-7,-4,-2,2,1,-5,-1,-1
1615920427806859,-3,0,0,-5,-6,-2,4,-1
1615920427808013,-2,0,5,2,3,1,-1,0
1615920427808013,-1,1,-1,-17,-5,4,2,-1
1615920427809032,-3,0,4,15,3,1,-7,-5
1615920427809032,2,-1,-5,9,5,-1,0,0
1615920427820090,0,0,-4,-11,-4,-4,3,1
1615920427820090,-4,-2,-2,-2,-3,-3,2,6
1615920427826966,10,-1,-2,-11,-9,6,-34,-7
1615920427826966,-10,-3,-1,7,5,0,7,-1
1615920427841924,11,0,-1,6,-3,-3,-3,-1
1615920427841924,-3,-2,-1,-3,0,1,-1,0
1615920427850900,-6,0,-1,-16,-8,0,6,2
1615920427850900,-3,-1,-1,4,1,-5,6,-3
1615920427865966,-5,-1,-1,1,0,-7,-13,0
1615920427865966,2,-1,-5,1,-3,3,-3,0
1615920427866858,-5,0,6,-1,1,2,5,1
1615920427866858,0,0,0,-3,-3,2,0,-2
1615920427894942,-2,-2,-3,0,-2,4,2,-1
1615920427894942,5,-3,-4,2,3,-8,0,-2
1615920427896937,-8,-3,1,5,3,-6,4,1
1615920427896937,1,1,5,-6,-2,0,-4,1
1615920427901948,-1,0,-3,-6,-9,-1,1,-1
1615920427901948,1,1,12,-2,-3,7,-4,-2
1615920427909003,-3,-4,-9,12,8,10,2,1
1615920427909003,0,-2,-3,-5,-3,-26,-4,-2
1615920427925077,-2,-1,1,-7,-4,-8,-32,-3
1615920427925077,-2,-2,-5,-2,0,-1,-2,-5
1615920427927072,0,4,-3,-6,-6,-8,5,4
1615920427927072,2,-1,-1,1,4,8,0,-2
1615920427940196,-11,-2,1,14,8,0,9,0
1615920427940196,15,-2,-8,-14,-6,-5,-1,0
1615920427946206,-3,-1,1,11,0,5,-1,-1
1615920427946206,-1,1,1,-9,-3,-6,-4,-2
1615920427962300,-1,-1,-4,3,1,1,6,-1
1615920427962300,-2,1,4,-3,2,-2,-7,-3
1615920427969282,-1,-1,-6,5,2,-2,4,-2
1615920427969282,3,-3,-14,-6,-5,0,6,0
1615920427993216,0,2,8,2,-3,5,5,2
1615920427993216,-8,-3,-4,-9,-10,6,-4,-2
1615920427994215,1,-2,-1,2,1,-16,-6,-2
1615920427994215,-1,1,1,0,-2,-1,0,2
1615920427999219,0,0,-3,-5,-4,3,-1,-2
1615920427999219,-2,-1,-2,5,1,4,3,0
1615920428008176,-1,0,1,-2,-1,-3,-3,-2
1615920428008176,-2,2,4,-1,1,4,4,-1
1615920428023187,1,-5,-9,-15,-8,-11,-5,4
1615920428023187,-4,2,15,21,3,-3,-3,-5
1615920428031151,-3,-2,-4,-10,-4,8,3,-1
1615920428031151,-2,-5,-2,5,4,0,7,-1
1615920428045104,0,2,8,-1,-2,1,-30,-3
1615920428045104,-3,-1,-7,4,1,-9,-3,-3
1615920428047099,2,-1,-4,-8,-2,-2,2,1
1615920428047099,-1,-2,-2,3,-1,7,-4,0
1615920428068459,-3,-2,0,-5,-3,0,9,5
1615920428068459,-4,-1,-3,0,7,-2,2,-3
1615920428069459,2,0,1,-3,-11,-1,-2,-1
1615920428069459,0,-1,-3,-14,-5,-1,-7,-1
1615920428082428,-4,-1,0,6,5,3,9,-3
1615920428082428,-1,-3,-6,1,-3,-4,-3,0
1615920428096410,-1,-3,0,-5,-1,1,4,-2
1615920428096410,-5,-1,2,3,2,-3,-2,-2
1615920428105750,-2,-2,-1,3,-1,7,6,-2
1615920428105750,5,3,4,-5,-2,-3,5,3
1615920428106752,-3,-3,-5,-6,0,-2,-1,-3
1615920428106752,2,1,-2,4,0,0,-15,-1
1615920428127523,-2,-3,-3,-1,6,-13,2,-5
1615920428127523,-1,-1,-3,13,2,-1,2,1
1615920428128520,2,-1,0,-7,-4,3,13,1
1615920428128520,-1,-1,-1,-3,2,1,0,1
1615920428143479,3,-2,-4,-7,-2,-2,3,1
1615920428143479,-4,-2,-1,-3,-5,-5,-6,-6
1615920428149467,0,1,1,-2,1,-3,1,-1
1615920428149467,-4,-4,-1,7,-1,8,10,-1
1615920428164422,2,-2,0,-1,-1,-7,-3,-3
1615920428164422,1,-2,2,-11,-6,3,4,1
1615920428165419,-8,-1,-1,10,9,-1,-6,1
1615920428165419,7,-2,-4,-11,-11,-1,-6,-5
1615920428187384,0,1,2,0,-2,6,5,1
1615920428187384,-1,0,-2,-3,0,-1,-1,2
1615920428188357,-2,-2,2,7,3,-6,-6,-3
1615920428188357,-4,-1,1,-2,-1,0,0,-1
1615920428203320,2,-1,-8,-1,2,2,2,-1
1615920428203320,1,-1,4,-7,-6,4,-1,2
1615920428209304,5,2,6,6,-1,-5,-7,0
1615920428209304,-2,-1,-7,-1,4,-7,-1,-2
1615920428232252,-2,0,11,8,-2,3,3,-2
1615920428232252,0,-6,-9,2,3,6,19,0
1615920428233237,-2,0,-3,-10,-5,0,-5,0
1615920428233237,0,1,1,-1,-4,-10,-3,10
1615920428248104,0,0,-2,-1,0,-2,-4,-8
1615920428248104,-4,-1,-2,1,6,-2,5,-1
1615920428249104,2,-1,0,11,5,0,2,1
1615920428249104,0,-1,-1,-17,-13,1,1,0
1615920428271073,-3,-1,-2,9,0,-6,-2,-4
1615920428271073,1,-1,-3,-8,0,3,-4,2
1615920428272042,5,1,4,-1,0,2,4,-1
1615920428272042,-1,2,9,8,2,-4,-10,-3
1615920428292986,-3,-2,-4,-6,-5,3,1,1
1615920428292986,-1,0,0,-3,-5,-3,-4,-3
1615920428300195,-5,-4,-4,5,0,-6,-9,-3
1615920428300195,2,-3,0,3,1,7,7,-1
1615920428309173,0,0,2,-9,-4,-12,-1,6
1615920428309173,-2,2,-1,6,3,-5,-7,-5
1615920428309173,-2,-1,-3,-10,-5,0,4,1
1615920428309173,-3,0,-2,0,3,11,1,-3
1615920428323136,0,-1,2,3,-3,1,-1,1
1615920428323136,5,0,-2,20,9,-7,-8,-1
1615920428329169,-1,-1,0,-7,-6,-5,4,-2
1615920428329169,2,2,1,-2,-1,5,3,-2
1615920428344112,0,-1,-3,-3,2,1,3,0
1615920428344112,0,-1,-5,-7,-1,-1,-7,1
1615920428352088,-1,-2,0,2,-1,-2,4,-2
1615920428352088,-6,-5,-8,0,3,-6,-6,-4
1615920428369042,4,1,1,-6,-2,0,-3,-1
1615920428369042,-4,-2,0,10,1,-1,1,-6
1615920428370038,4,-3,-7,5,4,10,2,4
1615920428370038,-4,2,14,-7,-9,-4,-2,4
1615920428383004,4,1,-3,-5,-1,-4,-4,-5
1615920428383004,1,1,0,-8,-3,0,3,0
1615920428389582,-6,-3,-4,-4,-5,-1,-8,-2
1615920428389582,-1,-2,-4,-1,-1,-7,1,-1
1615920428403727,-1,0,-1,2,1,0,0,2
1615920428403727,-5,-2,1,1,1,6,0,1
1615920428411681,6,1,2,-14,-8,6,-3,-1
1615920428411681,-1,-1,-8,6,5,-11,11,-2
1615920428427638,-3,-3,5,0,0,1,1,-1
1615920428427638,-1,-1,-4,-6,-4,-3,-1,-1
1615920428427797,-3,-2,0,6,8,6,-3,-2
1615920428427797,3,-1,-2,1,-2,-6,-1,1
1615920428443596,-4,-3,-8,2,-1,1,0,-2
1615920428443596,-1,0,1,-3,-2,-1,0,2
1615920428449579,0,-2,-3,-5,-4,-1,5,-1
1615920428449579,-4,-2,-1,2,2,4,2,5
1615920428464563,0,1,3,3,-7,-10,-17,-7
1615920428464563,-3,0,2,-6,-6,-3,-1,-2
1615920428471521,-9,-1,-6,-5,4,-3,1,1
1615920428471521,10,-3,-6,-7,-9,-5,-10,-2
1615920428488475,-2,-1,-2,-11,-2,12,3,2
1615920428488475,-1,-4,-3,9,5,-6,-1,-1
1615920428489473,-7,-1,7,-6,-8,-5,-6,-6
1615920428489473,5,3,1,2,0,-4,0,-3
1615920428503435,-2,-1,-6,11,7,0,-3,0
1615920428503435,2,0,1,-11,-8,-1,1,-2
1615920428509421,-1,1,-3,3,6,-3,2,0
1615920428509421,-5,-3,2,-5,-3,9,-9,-3
1615920428524465,-1,-2,-4,8,-1,-8,8,-1
1615920428524465,-2,-2,-3,-2,0,-1,-5,-1
1615920428540398,-1,3,2,4,-2,1,-2,1
1615920428540398,-2,-3,-5,-5,0,4,0,4
1615920428547381,-1,1,6,-1,-4,-3,1,-3
1615920428547381,-2,-1,1,14,8,4,-1,1
1615920428548402,5,-1,3,-10,-8,-1,-5,-2
1615920428548402,-4,0,-7,-1,0,0,4,-1
1615920428563337,-3,-1,-2,-14,-2,-5,-27,-2
1615920428563337,1,2,4,10,-3,7,5,1
1615920428569321,-4,-2,-5,-2,2,-15,-8,-2
1615920428569321,-3,-4,-2,-1,-1,3,-7,-7
1615920428584305,-1,2,-2,-4,-1,3,8,2
1615920428584305,-1,-1,-1,-3,-1,-6,-2,-1
1615920428591262,-1,-4,-6,-3,-2,-4,-11,-3
1615920428591262,-3,0,5,6,3,4,6,-2
1615920428607220,1,-2,-2,-13,-3,-1,5,1
1615920428607220,-6,0,-4,12,6,-2,-8,-1
1615920428608217,7,-1,1,-4,-5,-1,6,1
1615920428608217,-1,2,0,2,1,2,-1,-3
1615920428623178,-3,-3,3,-5,-1,-11,-7,-1
1615920428623178,-2,-3,-11,-6,-4,1,-6,-5
1615920428629161,1,1,-2,6,3,-5,3,1
1615920428629161,-6,0,1,3,-2,1,-1,-10
1615920428644122,1,-3,-4,-6,2,0,-9,-3
1615920428644122,-2,1,3,-9,-2,11,9,3
1615920428652099,-6,-2,2,9,-1,-16,-5,-3
1615920428652099,3,-4,-4,-7,1,1,-2,1
1615920428667079,-8,0,7,8,-5,-1,12,2
1615920428667079,0,-1,-1,-5,1,-2,-2,-3
1615920428668057,1,-1,-3,-2,-3,18,3,-1
1615920428668057,-1,1,-1,-3,-1,-21,-10,0
1615920428683017,1,-1,3,15,9,4,10,1
1615920428683017,2,-2,-5,-17,-9,-7,-4,-1
1615920428689600,-3,2,11,12,4,6,-3,-2
1615920428689600,-5,0,1,0,-2,-4,1,0
1615920428703980,6,-1,-2,-4,-4,11,0,0
1615920428703980,3,0,0,-6,0,-11,-3,7
1615920428711959,-4,-1,-5,-5,1,0,10,-4
1615920428711959,-9,-3,-4,-3,-1,3,-11,1
1615920428728577,9,-2,-4,12,3,2,7,0
1615920428728577,-2,-1,0,-1,-1,-2,-2,-1
1615920428729576,0,-1,-6,-10,-5,0,-1,0
1615920428729576,-3,-2,2,10,4,0,-1,-3
1615920428744561,-4,-2,-3,-14,-4,8,6,2
1615920428744561,-2,-1,0,4,3,-10,-1,-4
1615920428749547,-3,-2,-5,-3,-4,-5,-8,-4
1615920428749547,0,-3,-4,0,1,2,4,-2
1615920428764509,-1,2,-3,-11,-8,1,-7,0
1615920428764509,-2,3,12,5,-6,7,5,-1
1615920428771464,-2,0,1,-1,5,-9,-7,-2
1615920428771464,3,-1,-3,2,5,5,0,1
1615920428787443,-3,-3,-3,-7,-1,-8,-2,-8
1615920428787443,-4,-4,-7,-1,-4,3,1,-2
1615920428788422,0,0,2,2,3,3,4,3
1615920428788422,4,2,13,1,-5,0,-7,-2
1615920428803382,-4,1,-7,-4,-2,4,2,-1
1615920428803382,0,-3,-1,-9,-3,-2,-7,-5
1615920428809367,-2,-3,-6,11,7,1,1,-2
1615920428809367,-1,2,-1,3,2,-1,8,3
1615920428824349,4,0,0,-2,-1,-1,1,0
1615920428824349,-2,1,-2,-11,-2,1,-4,-1
1615920428831372,3,1,9,3,-7,2,4,-2
1615920428831372,-3,-1,-4,-1,2,-3,-3,-2
1615920428847262,-3,-3,-1,9,5,-2,5,4
1615920428847262,1,-1,-8,-3,0,6,-2,-2
1615920428848259,-1,0,-4,-14,-9,-15,0,2
1615920428848259,0,-1,1,0,-1,-3,-1,-3
1615920428863220,0,2,5,-3,-4,-2,-9,-4
1615920428863220,0,-1,-1,5,5,1,-1,2
1615920428869228,-5,-4,-1,-2,-2,11,3,-1
1615920428869228,8,0,-1,-11,-6,1,1,-3
1615920428884162,-4,-3,-5,7,2,-4,10,3
1615920428884162,-2,0,-1,7,4,-1,1,-2
1615920428891163,0,-1,3,-2,-2,7,1,-3
1615920428891163,-3,2,-1,-2,-3,3,6,3
1615920428907102,0,-2,-5,-13,-12,-9,-10,1
1615920428907102,2,-4,3,-1,-4,-5,4,-2
1615920428908143,-1,2,2,0,7,-1,-2,2
1615920428908143,0,0,-1,3,-1,-2,0,2
1615920428923106,0,0,-1,1,3,2,3,-1
1615920428923106,-1,-2,0,-3,-1,-2,-8,-2
1615920428929196,0,-3,-6,-5,-1,-1,0,0
1615920428929196,-2,0,5,2,-7,-4,-5,-5
1615920428944213,1,-1,-2,5,6,0,7,8
1615920428944213,-11,-1,-1,-2,-3,-2,-2,-5
1615920428952167,19,2,-3,-12,-8,-1,-6,-1
1615920428952167,-3,-1,-4,-2,-1,2,-1,-1
1615920428967147,-3,-2,-1,4,4,2,-3,0
1615920428967147,3,0,2,4,-2,-3,2,1
1615920428968145,-7,-3,-4,-1,-1,-2,-3,0
1615920428968145,-3,-3,-2,-3,-2,-8,0,-1
1615920428983105,4,1,-1,-5,-4,0,-5,-3
1615920428983105,-3,0,-2,4,6,4,6,1
1615920428989088,-5,-2,-6,-14,-10,0,-18,-6
1615920428989088,3,0,13,6,1,0,2,2
1615920429004147,-5,-2,-2,-3,3,-4,-5,-5
1615920429004147,4,1,2,-1,1,0,-8,-3
1615920429012052,-4,-1,3,13,7,-4,3,-1
1615920429012052,0,-1,-10,-11,-7,-1,0,0
1615920429026988,0,-2,5,5,4,-2,0,-4
1615920429026988,-5,0,0,1,0,0,5,1
1615920429027985,-1,0,-1,-3,1,3,1,-1
1615920429027985,0,-2,-3,0,0,-5,-2,-2
1615920429044320,-1,1,1,0,-1,6,3,-5
1615920429044320,5,-1,-2,-11,-11,-7,-7,0
1615920429049329,-10,-4,-3,10,11,2,-2,-3
1615920429049329,2,-3,-6,-12,-1,-1,2,2
1615920429065263,-4,0,1,10,2,6,-4,2
1615920429065263,2,1,4,-6,-3,-18,-7,-1
1615920429071299,-4,0,-4,2,1,-4,6,1
1615920429071299,-9,-3,-8,3,3,7,-1,-1
1615920429087260,11,3,8,-7,-6,2,15,-1
1615920429087260,-3,-3,-4,12,8,2,-2,-1
1615920429088254,2,-1,0,-8,-7,-8,0,-1
1615920429088254,0,-1,-5,9,8,1,-3,-1
1615920429111419,-4,-1,-3,-5,-2,-2,1,0
1615920429111419,-7,-3,-1,0,-5,0,-3,-1
1615920429112441,1,-1,1,-3,-4,1,3,1
1615920429112441,3,3,4,5,-2,0,1,-6
1615920429132364,-12,-4,-4,-8,-2,-2,-4,3
1615920429132364,15,0,-4,-4,1,1,3,-3
1615920429133362,-3,-1,6,10,4,-4,-3,-2
1615920429133362,-4,-3,-1,-3,1,-2,0,3
1615920429147349,2,0,-6,-5,-4,-8,-9,-5
1615920429147349,-2,-3,-7,-1,-6,-3,-8,1
1615920429148322,0,-1,6,7,3,3,4,3
1615920429148322,2,-1,-2,-3,0,-3,-7,-3
1615920429163280,0,-1,-4,-5,-3,-2,0,-1
1615920429163280,-2,1,4,8,9,14,8,0
1615920429169269,0,-2,-3,-8,-4,-12,-12,-2
1615920429169269,-3,1,0,-2,-4,-7,2,0
1615920429185226,0,-1,-3,-1,-1,2,7,8
1615920429185226,-2,-1,-1,-5,-3,-5,-38,-9
1615920429192202,4,1,-2,-2,0,2,6,-1
1615920429192202,-12,-4,-4,-7,0,1,-7,-1
1615920429207164,7,0,2,8,3,-3,-8,-3
1615920429207164,0,-1,0,2,0,1,9,4
1615920429214197,-7,-3,1,0,-3,6,3,0
1615920429214197,8,0,-11,-7,-3,-1,-5,0
1615920429237757,-7,-3,8,9,2,3,0,-4
1615920429237757,-2,-1,1,-15,-3,-8,0,0
1615920429237757,-3,0,-4,-10,-3,2,-1,-4
1615920429237757,-1,0,1,15,3,2,4,0
1615920429245737,-2,-4,-4,-5,2,0,-1,-4
1615920429245737,1,0,-2,2,-1,-5,3,1
1615920429251865,-1,-2,0,-5,1,-4,-1,-1
1615920429251865,0,-1,0,-3,-5,2,-4,0
1615920429266829,0,0,-4,-6,-1,-2,-2,3
1615920429266829,-1,1,-3,8,4,7,4,-2
1615920429273810,-3,-1,-4,-7,-2,-8,-3,-4
1615920429273810,2,-2,-1,13,6,-1,1,-3
1615920429289802,-6,2,4,-10,-16,-1,-2,-2
1615920429289802,-1,0,-2,-7,-4,-4,6,1
1615920429290804,3,3,-1,-1,1,7,2,2
1615920429290804,-9,-4,-6,-6,-3,-2,-2,0
1615920429305763,9,2,10,5,3,-1,-7,-3
1615920429305763,-4,-2,-9,-10,-7,-3,10,4
1615920429319832,4,3,9,23,4,-1,-3,-1
1615920429319832,-2,-1,0,-2,-1,-1,9,0
1615920429326707,-2,-3,-8,1,1,0,-3,-5
1615920429326707,1,2,1,-6,-7,-8,-9,-3
1615920429342255,-3,-3,-7,-4,-1,4,8,1
1615920429342255,3,-1,6,4,-1,-4,-2,-1
1615920429350097,-5,-2,-4,-3,4,0,6,3
1615920429350097,3,1,9,1,5,1,-2,-3
1615920429351102,3,0,-5,-3,1,1,-2,1
1615920429351102,-2,0,1,-1,-1,2,2,-2
1615920429372147,1,-3,-8,-2,-2,3,-5,1
1615920429372147,-6,-2,-2,-3,-2,2,3,-1
1615920429373145,-2,-1,-2,11,9,-11,-5,-2
1615920429373145,-5,-2,0,2,-1,3,-6,-3
1615920429388104,7,3,0,-1,3,-3,6,2
1615920429388104,-5,-3,-4,-2,-4,5,11,-2
1615920429394089,1,-2,7,-1,-10,4,-2,-4
1615920429394089,0,0,-1,-10,-6,-6,-1,-1
1615920429410047,-7,-5,-6,8,4,-3,-2,-3
1615920429410047,-3,0,1,-1,0,4,4,1
1615920429411044,-2,-1,-2,-9,-4,2,-1,-8
1615920429411044,2,0,6,2,-3,-10,-8,0
1615920429426004,1,-1,-4,-10,-14,-2,-6,-2
1615920429426004,3,0,2,5,4,-2,-2,1
1615920429432014,-4,-3,-7,-3,-3,2,-1,2
1615920429432014,1,4,7,-2,0,6,1,2
1615920429462932,-6,0,1,3,2,-5,-3,-3
1615920429462932,10,-1,-2,-5,-7,0,2,-1
1615920429463930,-5,-2,1,3,-5,-2,-7,1
1615920429463930,5,-1,-1,-13,2,1,0,-3
1615920429469913,0,-1,-3,19,4,-4,-3,1
1615920429469913,-2,1,1,-9,-1,0,-1,-2
1615920429476895,-1,-2,-2,4,4,-2,2,0
1615920429476895,0,-4,-6,-3,-6,4,6,0
1615920429485871,-3,-1,1,-3,3,9,1,-3
1615920429485871,-5,-2,-2,-4,-4,-7,-7,-3
1615920429491953,-1,0,-3,1,5,3,3,-4
1615920429491953,0,0,0,0,-11,5,13,7
1615920429506863,-3,0,4,-5,-3,-12,-6,-10
1615920429506863,-4,-4,-6,0,-1,-6,2,-1
1615920429513846,-2,1,7,1,3,-1,-3,2
1615920429513846,0,-1,-3,0,5,1,3,1
1615920429531793,-2,-1,-1,5,0,2,6,1
1615920429531793,-5,-1,0,-1,-6,-3,-8,-1
1615920429531793,3,-2,-9,-10,-6,-4,2,1
1615920429531793,-3,1,12,6,0,3,-5,-3
1615920429552189,0,2,-3,3,4,-10,-8,-1
1615920429552189,-2,-2,-4,-2,3,6,3,0
1615920429560768,-1,-2,2,-7,-4,-3,-5,0
1615920429560768,-1,-3,-7,-3,1,-6,-6,-3
1615920429568746,-1,-1,-1,-6,-4,9,-3,1
1615920429568746,0,-3,-2,7,7,2,-1,0
1615920429590807,2,-1,-3,-18,-9,-3,-1,-1
1615920429590807,-1,1,2,8,4,1,3,-5
1615920429592703,0,0,1,7,7,-2,20,9
1615920429592703,1,-3,-4,-8,-6,-1,-29,-7
1615920429593701,-9,-3,-1,4,-2,-4,0,0
1615920429593701,9,3,-1,-3,1,-8,-1,-3
1615920429605670,-3,-1,-1,-4,-2,15,5,2
1615920429605670,-3,-2,-1,2,1,-19,6,0
1615920429611655,5,4,3,4,-3,13,3,0
1615920429611655,-5,-5,-5,-1,-2,-3,-9,2
1615920429626616,1,2,8,1,0,-10,-10,-4
1615920429626616,1,1,-4,-3,-2,6,3,0
1615920429634591,0,-1,-1,-1,-1,7,-2,-1
1615920429634591,-2,-2,-8,-6,-3,-9,-3,-1
1615920429649575,0,-2,-4,3,3,-1,4,-4
1615920429649575,-2,1,3,0,-3,-1,-6,-2
1615920429650549,1,-1,-6,4,2,-5,3,0
1615920429650549,1,0,2,-2,0,1,-5,1
1615920429665508,-1,-1,-3,-7,0,-4,12,-3
1615920429665508,-2,-2,1,3,-7,4,4,-2
1615920429671492,-3,-5,0,8,7,9,3,-6
1615920429671492,-8,0,-7,-4,-3,-8,-2,-2
1615920429695123,7,3,7,-5,-6,-8,-8,0
1615920429695123,0,-3,1,3,3,0,-2,-3
1615920429696120,4,-1,-4,-12,-5,0,0,2
1615920429696120,-4,1,5,7,1,0,-3,0
1615920429710059,-4,-3,-8,-8,-3,-5,-5,-5
1615920429710059,1,1,11,11,1,6,1,1
1615920429711056,-5,2,9,-5,-3,-4,0,2
1615920429711056,6,-2,-5,-2,1,-1,-1,0
1615920429740120,1,-2,-4,-10,-6,3,3,0
1615920429740120,3,-1,-3,7,8,-3,-6,2
1615920429741117,-2,-2,-4,5,-4,-11,-35,-4
1615920429741117,0,-2,-4,-6,-8,0,-1,-2
1615920429755080,-9,-4,-1,1,3,7,0,-9
1615920429755080,13,0,-1,-8,-2,6,6,1
1615920429756077,-5,-1,-1,1,-1,-10,7,1
1615920429756077,3,-3,-1,-6,3,5,1,1
1615920429770043,0,0,-1,8,0,3,-13,1
1615920429770043,-4,-3,-4,-5,-6,-14,4,-1
1615920429771043,-2,1,3,5,3,-1,0,-2
1615920429771043,1,-1,0,-9,-3,-2,-5,-1
1615920429785997,-5,-3,-1,3,-1,0,4,1
1615920429785997,-3,-1,-6,0,4,2,2,-1
1615920429791981,2,0,-4,-7,-5,2,1,-1
1615920429791981,-3,1,6,16,4,1,3,0
1615920429807049,-3,1,-1,1,-2,-5,-11,-1
1615920429807049,-2,1,-4,-8,-3,-5,-1,0
1615920429813926,3,-2,-2,9,10,1,2,-1
1615920429813926,-4,-2,-3,-10,-9,2,1,-1
1615920429829883,2,-3,-2,1,3,-2,-6,-1
1615920429829883,2,1,2,-4,-6,0,1,1
1615920429830877,-1,0,-2,-11,-2,0,6,3
1615920429830877,-14,-4,-4,15,2,1,-2,-8
1615920429845837,10,0,2,-8,-3,-5,-1,4
1615920429845837,-2,-2,-1,2,-2,2,-9,-1
1615920429859947,5,2,4,0,2,0,12,0
1615920429859947,-5,-1,-2,4,5,-2,-3,1
1615920429867035,-4,0,-4,-11,-5,1,0,-1
1615920429867035,1,0,-2,1,0,1,3,-3
1615920429874008,-5,-5,-5,-4,-2,-21,-8,-2
1615920429874008,3,3,1,-4,-5,-5,-2,0
1615920429889894,-1,-2,-1,5,2,-1,2,-1
1615920429889894,-1,-2,-4,-11,-9,5,5,0
1615920429890866,-2,-1,-4,5,3,5,-3,-1
1615920429890866,3,1,2,-5,-2,0,-2,-2
1615920429913960,-5,-2,-1,-6,-4,-10,-6,-2
1615920429913960,-5,-2,-2,16,7,3,0,-1
1615920429914956,12,3,1,-14,-5,-2,-8,-2
1615920429914956,2,-4,-4,6,4,4,0,0
1615920429935105,-1,-4,-4,-8,-5,-3,-4,0
1615920429935105,-2,3,9,4,4,4,2,-2
1615920429936086,-4,-2,-5,-4,-5,-8,-1,0
1615920429936086,-1,0,-1,1,4,0,-2,-3
1615920429950048,3,-3,-7,3,2,4,7,5
1615920429950048,-2,-2,-3,-6,-1,-4,0,1
1615920429951046,-1,-1,1,2,-5,1,-2,-4
1615920429951046,0,0,-1,-13,-6,0,-3,-1
1615920429966006,-3,1,-1,9,2,-2,-3,-2
1615920429966006,-5,-2,-1,-19,-13,-3,-5,-3
1615920429971989,-3,-2,0,16,4,5,7,0
1615920429971989,0,-1,-5,-8,-3,1,5,0
1615920429987978,0,1,6,-6,-3,-10,-8,-4
1615920429987978,2,0,4,2,6,-4,-2,7
1615920429993963,-5,-3,-6,-6,-6,0,-1,-12
1615920429993963,1,1,-3,7,2,2,-3,3
1615920430009921,0,-2,5,-11,-5,-1,7,0
1615920430009921,-2,-2,-9,17,13,5,-8,-1
1615920430010917,-2,2,10,3,-3,-7,-2,5
1615920430010917,3,-3,-1,-1,-2,-1,1,-1
1615920430032010,-1,-1,-3,-1,0,2,11,-1
1615920430032010,-1,-3,-3,-19,-17,-3,3,2
1615920430032942,-1,2,0,7,4,4,2,0
1615920430032942,-4,-2,-3,-3,-1,-5,-13,-6
1615920430048865,-3,-1,-4,1,-2,0,7,1
1615920430048865,0,2,17,2,1,6,3,-1
1615920430062828,-3,-2,-9,-5,-2,-13,-18,-2
1615920430062828,3,1,4,-7,-4,-7,9,0
1615920430070905,-2,0,-3,7,1,6,-5,-1
1615920430070905,-1,-1,-4,11,7,-2,-4,-2
1615920430071804,-4,-5,-9,-14,-7,4,-1,-11
1615920430071804,0,0,6,7,6,-1,-2,1
1615920430085767,0,-1,-2,-6,-3,6,-3,2
1615920430085767,-11,-4,-8,2,0,-5,5,-2
1615920430091849,10,0,3,-9,-4,-1,-19,2
1615920430091849,-1,-2,-4,9,5,0,-1,1
1615920430108813,-2,0,-1,7,4,-4,-4,-3
1615920430108813,-4,0,-3,-17,-14,-6,-4,-1
1615920430113806,3,0,-4,3,3,1,9,3
1615920430113806,-10,-2,4,-5,-5,-3,1,-1
1615920430131753,6,0,1,0,2,6,-10,1
1615920430131753,2,-3,-5,3,2,-9,3,-1
1615920430131753,-1,-1,1,1,-1,0,7,3
1615920430131753,1,-1,-3,-4,-2,-2,-9,-1
1615920430145746,-3,0,-1,-1,-2,-5,2,-2
1615920430145746,3,2,-4,-1,0,8,-1,1
1615920430151730,-3,1,6,-2,-6,-5,-2,-10
1615920430151730,-1,-3,-4,1,3,4,2,-2
1615920430166695,-10,-2,-3,2,-1,-4,-2,-2
1615920430166695,17,1,3,6,6,-1,-9,-5
1615920430173929,-4,-1,-5,-5,-9,4,10,4
1615920430173929,0,1,5,-9,-4,-4,-6,2
1615920430189755,-2,-1,-4,-8,-5,1,-1,-2
1615920430189755,-2,-1,4,8,2,-2,-3,0
1615920430196929,1,1,-2,-1,3,3,1,3
1615920430196929,0,0,-5,5,4,2,7,-2
1615920430213858,2,-1,4,4,-3,3,-1,-2
1615920430213858,-5,-4,-6,-9,-2,3,17,-2
1615920430214856,-1,0,10,8,4,-1,-14,-2
1615920430214856,4,-1,-3,-3,-3,-1,10,4
1615920430226845,-1,-7,-9,4,6,-3,-9,-3
1615920430226845,-3,4,13,-1,-2,0,12,1
1615920430234800,-1,-1,-3,1,2,1,3,1
1615920430234800,1,-1,0,0,-5,5,-4,-5
1615920430249760,-5,-1,0,-20,-5,-8,-2,0
1615920430249760,7,1,-7,2,1,-3,-6,-3
1615920430256852,-4,-5,-1,9,3,2,7,1
1615920430256852,-3,-1,-2,-8,-2,-8,-4,1
1615920430265777,3,0,-4,7,4,-1,-3,2
1615920430265777,-8,-1,-2,2,2,4,-10,-4
1615920430271773,1,-1,1,-4,4,-1,7,1
1615920430271773,3,0,-4,0,0,7,3,-1
1615920430286724,-6,2,2,1,-2,-3,3,-2
1615920430286724,-6,-2,-2,-7,2,-4,-2,-2
1615920430294699,2,1,1,10,1,-2,-2,2
1615920430294699,1,0,8,-1,-1,6,-3,8
1615920430309659,-1,-2,-2,-6,-4,-10,3,-14
1615920430309659,0,-1,-3,-8,-6,-2,-37,0
1615920430316644,2,0,-1,0,4,4,0,3
1615920430316644,-5,-1,10,2,5,-3,0,0
1615920430332641,-6,0,0,6,0,-3,-4,1
1615920430332641,13,-2,-2,0,-1,1,8,0
1615920430333621,-3,-2,-6,-3,-6,0,-4,-3
1615920430333621,-4,0,-2,-6,-2,-9,-6,-6
1615920430346596,1,0,4,10,6,8,5,2
1615920430346596,-4,-2,-1,-4,-5,4,10,-1
1615920430354566,-3,-2,-3,7,1,-6,-8,-1
1615920430354566,-2,0,-7,-11,-8,-4,-1,-3
1615920430369557,1,-1,1,-1,0,2,0,1
1615920430369557,0,-2,-4,-2,0,-4,1,0
1615920430376507,3,1,5,-8,-4,5,-1,5
1615920430376507,-3,0,-4,4,1,-2,2,-13
1615920430392463,1,0,4,5,3,-1,-1,1
1615920430392463,-5,-3,-3,-8,-13,-1,11,-5
1615920430393462,-2,-1,2,1,1,6,5,-1
1615920430393462,-6,-2,-7,-9,-6,-8,4,-1
1615920430408421,9,-2,-3,-4,-2,-2,-7,0
1615920430408421,-4,-1,0,3,3,0,5,-2
1615920430414472,-8,-1,-4,-5,-4,-4,1,-2
1615920430414472,10,1,2,2,1,-1,-4,0
1615920430431180,-5,-5,-1,1,-3,8,2,-2
1615920430431180,-9,2,-1,3,4,-9,-3,2
1615920430437169,6,-1,-6,0,0,-2,-2,-2
1615920430437169,-1,-1,-2,0,2,3,1,-1
1615920430453223,-2,0,-5,-6,-3,-6,-2,0
1615920430453223,0,1,8,-1,-1,0,-4,0
1615920430468167,-3,-1,-2,-2,-2,1,-3,-4
1615920430468167,2,-3,-4,4,5,-2,-3,9
1615920430470158,3,3,7,-9,-10,4,0,-8
1615920430470158,-6,-4,-8,-3,4,-1,8,-1
1615920430474150,1,-1,-3,2,4,-9,-1,-3
1615920430474150,2,2,6,6,-4,2,5,4
1615920430490123,-5,-1,-4,1,3,0,-3,3
1615920430490123,0,-2,-3,6,0,0,-5,-2
1615920430497108,1,-4,-7,-13,-1,7,13,-2
1615920430497108,-3,0,0,7,-1,-16,-10,-5
1615920430514063,2,1,-2,-5,-2,0,-2,-1
1615920430514063,0,-2,6,0,-4,-11,-8,-2
1615920430515065,-2,0,-4,7,0,-2,7,2
1615920430515065,-5,-2,4,-6,-2,5,0,-2
1615920430536054,3,-2,-1,-3,-1,-1,2,-1
1615920430536054,5,2,-4,-2,-6,8,-4,1
1615920430538049,0,-1,4,-3,1,-10,-10,7
1615920430538049,-3,-6,-4,-12,-15,-6,-8,-10
1615920430551218,-4,1,-2,-3,4,-1,0,1
1615920430551218,1,-1,-3,6,-1,0,-2,-2
1615920430557202,0,-2,-2,10,6,5,5,4
1615920430557202,-2,2,3,-5,-2,-1,2,1
1615920430572120,-3,0,5,3,-2,-1,4,1
1615920430572120,4,-2,-5,-8,-2,1,0,-2
1615920430573118,-4,-1,-2,-16,-14,-9,-19,-7
1615920430573118,-1,-3,-7,16,13,-2,5,1
1615920430588233,2,2,-2,-4,-4,3,-2,-1
1615920430588233,-4,0,-1,-1,2,-3,-5,1
1615920430594242,-4,-2,-2,-6,-3,1,17,-2
1615920430594242,6,0,8,7,3,-1,0,0
1615920430609177,-5,-4,-2,9,1,-5,-9,0
1615920430609177,-1,-2,-2,-1,3,1,5,8
1615920430617251,1,2,-2,-8,-1,5,7,-8
1615920430617251,-7,-2,-1,-5,-8,-3,-8,-3
1615920430632584,0,-1,-1,11,8,0,1,-2
1615920430632584,-7,0,7,-2,0,1,4,1
1615920430633577,11,-1,1,5,-2,-2,-8,0
1615920430633577,-6,-2,-5,-8,4,6,-1,-1
1615920430657347,10,-4,-7,2,-3,-2,-1,2
1615920430657347,3,3,7,4,3,-1,-1,-2
1615920430670407,-7,-4,1,-4,0,-12,-7,-4
1615920430670407,0,0,-7,-2,-3,3,-3,-1
1615920430672309,-2,-2,-1,-6,-6,4,3,-1
1615920430672309,-2,-3,-2,-1,3,6,-1,-3
1615920430676299,-1,1,-5,4,-6,-5,-6,0
1615920430676299,3,0,3,0,1,2,3,1
1615920430692255,-4,-2,-2,-10,-4,-3,1,7
1615920430692255,3,-1,-1,15,8,-1,-1,-3
1615920430693253,0,-1,-1,-15,-9,7,5,0
1615920430693253,-12,-2,-5,0,2,-5,-36,-5
1615920430708354,3,0,2,-3,-1,4,-3,-1
1615920430708354,-3,-2,-8,-5,-2,-8,7,-2
1615920430714342,6,-1,-2,14,7,0,-6,0
1615920430714342,1,1,-3,-5,-3,3,17,2
1615920430729719,0,-2,-2,-3,1,-1,-6,-2
1615920430729719,0,0,2,-10,-6,-2,-6,1
1615920430736701,-5,-1,6,2,3,3,0,-1
1615920430736701,1,-4,2,10,2,-12,0,-2
1615920430752917,-4,1,0,1,-2,3,2,-2
1615920430752917,-1,-4,-5,-16,-7,-5,3,-2
1615920430752917,-5,-2,-1,7,5,4,-2,1
1615920430752917,2,-3,-1,-3,-4,2,4,-1
1615920430776753,-3,2,1,-6,1,-8,-4,-3
1615920430776753,3,-5,-1,-1,-4,-2,-1,-2
1615920430782882,-10,-2,-1,1,1,3,-10,-3
1615920430782882,1,1,-2,-3,-4,-5,9,2
1615920430788971,-1,0,-1,3,-1,-2,3,-2
1615920430788971,-5,0,-2,-3,-2,-1,-5,-2
1615920430796871,1,0,1,5,6,0,6,3
1615920430796871,-15,-1,-2,-3,2,2,-27,-4
1615920430812087,16,0,-8,-1,-5,-10,-1,0
1615920430812087,0,2,8,4,0,-1,-5,-2
1615920430813084,0,0,-2,-9,-3,-1,1,-1
1615920430813084,-3,-2,0,3,-3,3,11,1
1615920430828686,-5,-4,0,-5,0,0,-2,-2
1615920430828686,0,3,-5,2,0,-4,-10,-2
1615920430834773,6,-2,-3,-6,-5,-2,4,1
1615920430834773,5,-1,1,-2,1,6,11,-3
1615920430849773,-6,-1,-2,3,4,-1,-5,1
1615920430849773,3,0,-3,-12,-17,-7,3,-3
1615920430856856,-5,-4,-4,7,0,-5,-3,-5
1615920430856856,6,2,0,-3,4,-1,2,1
1615920430872316,-2,0,2,5,4,4,3,-3
1615920430872316,-5,-1,-2,-1,5,6,0,0
1615920430873214,2,-1,-2,5,-1,0,-4,-1
1615920430873214,2,-1,5,-7,-9,-2,2,-1
1615920430888174,-11,1,14,8,-1,2,3,2
1615920430888174,8,1,1,-1,-1,0,-3,2
1615920430894158,-3,-1,-7,-4,-1,-4,-4,-2
1615920430894158,6,2,0,5,2,1,3,-1
1615920430909119,-2,-1,-3,-7,-5,3,4,5
1615920430909119,-8,-4,-6,-4,-2,-12,-14,-17
1615920430917199,3,1,1,2,0,2,4,2
1615920430917199,-2,-3,1,-4,0,-4,-7,0
1615920430932214,1,-1,-3,-2,-1,-4,0,-2
1615920430932214,0,1,0,-6,-8,4,1,4
1615920430933101,-4,-2,-7,-7,-1,-3,-3,-1
1615920430933101,-4,-3,-2,0,2,-5,-2,-4
1615920430948060,2,-2,-5,8,5,1,-2,-2
1615920430948060,3,-1,0,6,2,6,2,0
1615920430954070,-1,1,0,-11,-8,-4,4,-4
1615920430954070,-1,0,-2,-3,0,1,3,3
1615920430969031,-1,-2,-5,3,6,-2,-6,-3
1615920430969031,-3,-2,1,9,2,-9,2,2
1615920430977009,-1,1,2,-8,-4,0,0,-2
1615920430977009,5,2,7,-11,-7,3,-2,-2
1615920430992033,0,-5,-11,-5,-2,1,5,7
1615920430992033,-5,-2,0,5,4,1,-3,-3
1615920430993030,-1,0,0,15,8,-1,0,1
1615920430993030,1,-2,-11,-17,-17,2,-3,1
1615920431007993,-4,-1,3,2,4,-4,-6,-6
1615920431007993,-5,0,0,-7,-5,-1,5,8
1615920431013978,9,-1,1,-8,-2,-6,-4,-2
1615920431013978,-4,-1,-4,6,2,-1,2,-2
1615920431030717,-5,-2,3,5,2,3,0,-4
1615920431030717,16,0,-4,0,-2,2,-2,-2
1615920431036701,-7,-2,3,-10,-6,0,4,-2
1615920431036701,-3,0,-4,10,8,-3,0,0
1615920431052919,-1,-2,0,0,-3,-1,-2,-4
1615920431052919,-3,-1,-5,-5,-3,-4,6,-1
1615920431052919,0,0,11,4,-2,0,0,4
1615920431052919,0,-2,-4,-9,-1,-3,-4,-12
1615920431068770,-3,1,0,0,-1,-2,4,0
1615920431068770,-3,-2,-4,3,2,0,-3,-1
1615920431074762,0,-3,-5,-3,-3,0,0,0
1615920431074762,-2,1,-2,6,3,-1,2,3
1615920431089798,1,0,-1,-16,-7,-4,-4,-5
1615920431089798,-6,-4,0,16,7,3,-5,-6
1615920431096749,3,0,1,-1,-2,-4,-4,0
1615920431096749,0,1,6,10,6,3,3,2
1615920431119772,5,1,-6,-11,-7,-4,-6,-3
1615920431119772,-6,0,0,-10,-2,-4,-2,0
1615920431120660,0,2,2,16,10,-2,-3,-2
1615920431120660,-3,-4,-7,-2,-1,12,2,2
1615920431128644,1,0,1,-2,-8,-9,1,0
1615920431128644,-4,-3,-5,-1,0,-9,0,4
1615920431134627,-2,-1,4,2,1,4,-2,-3
1615920431134627,1,-2,-1,-6,-4,-3,-2,0
1615920431157586,0,-1,-3,-7,-2,2,-5,0
1615920431157586,3,2,4,2,3,13,4,2
1615920431158559,-3,-3,-5,-4,1,-11,-5,-2
1615920431158559,1,-1,1,0,-2,-3,-1,-2
1615920431171525,-3,-1,1,4,2,-1,-1,2
1615920431171525,-2,-1,-5,-4,-2,-3,1,-3
1615920431179610,-2,-1,2,-1,2,6,-5,-3
1615920431179610,2,0,0,-2,-8,-2,11,4
1615920431188480,0,-3,-4,-5,1,-3,-3,-3
1615920431188480,-1,-1,2,19,3,1,1,-4
1615920431194463,-4,2,1,-13,-6,2,-11,-3
1615920431194463,4,-3,-3,-5,-1,-6,2,0
1615920431209558,-5,-5,-6,1,-2,0,1,-2
1615920431209558,3,3,12,-13,-5,2,1,1
1615920431216543,-1,-4,-7,14,1,5,5,2
1615920431216543,-3,-4,-2,-7,-2,-2,1,-2
1615920431233657,-2,-3,-1,8,6,-6,-8,-3
1615920431233657,-3,2,1,-8,-8,8,2,1
1615920431239741,-1,0,-6,-9,-6,-9,2,-1
1615920431239741,0,2,0,-1,-2,-3,-7,-3
1615920431254756,0,-2,2,7,5,-4,0,1
1615920431254756,-3,-3,-5,0,-4,-14,-3,-2
1615920431255645,1,-1,1,0,-1,4,-2,-3
1615920431255645,-2,-1,-3,-4,-7,-1,-1,2
1615920431270636,-4,-1,-1,0,-1,9,4,0
1615920431270636,5,-2,-1,-1,1,-12,-4,-1
1615920431276646,-2,-1,-2,10,4,4,1,4
1615920431276646,0,0,-1,3,1,0,-3,-2
1615920431292109,-1,1,0,-8,-4,5,-4,-2
1615920431292109,3,-1,-6,-4,3,2,8,-2
1615920431299739,-7,-2,-2,-8,-8,-5,-1,1
1615920431299739,-6,0,8,1,2,0,-3,0
1615920431315058,5,1,-4,3,-1,1,-1,0
1615920431315058,-1,-2,0,-2,1,-1,-2,2
1615920431322044,-3,-5,-8,0,0,-2,3,-2
1615920431322044,5,4,10,0,3,1,-5,-3
1615920431329021,0,2,1,-12,-7,-7,0,-1
1615920431329021,-1,1,1,11,2,-4,-4,-2
1615920431336999,-2,-2,-1,-3,1,-1,-2,-6
1615920431336999,-5,-5,-9,-5,3,-3,-1,-1
1615920431352247,-1,1,9,2,-6,-4,-1,1
1615920431352247,-2,-1,-1,-11,-6,1,-6,-4
1615920431367286,0,-1,-4,7,7,7,6,6
1615920431367286,-9,-2,-3,3,0,-8,-4,-12
1615920431375179,9,2,8,-3,-3,1,3,1
1615920431375179,-5,-2,-8,-9,-2,-9,-3,-2
1615920431376160,1,0,0,5,-6,-3,1,-3
1615920431376160,-1,-2,-2,1,5,6,2,3
1615920431389137,-3,-2,-3,5,4,3,-7,0
1615920431389137,-7,-6,-4,-3,-1,-3,2,-3
1615920431397118,1,3,5,-9,-7,3,-4,1
1615920431397118,0,0,-3,5,1,-5,-2,0
1615920431412152,-4,-2,0,-1,-1,-4,-1,-4
1615920431412152,3,1,-2,-7,-5,-2,-2,4
1615920431427015,1,-1,1,-4,-2,-2,3,1
1615920431427015,-5,-3,0,4,2,11,-1,-2
1615920431435077,5,1,-6,-6,-3,-11,0,-2
1615920431435077,-9,-1,4,2,0,4,-3,5
1615920431435990,1,-3,-1,-7,0,-1,0,1
1615920431435990,9,-1,-2,14,6,-4,3,1
1615920431457075,-1,-1,-10,-16,-10,0,0,-3
1615920431457075,-2,2,9,-1,-2,1,3,0
1615920431457997,-2,-2,-1,-8,0,-1,-7,-4
1615920431457997,-2,-3,-7,3,6,0,2,3
1615920431472151,-3,-2,0,8,0,-1,-2,1
1615920431472151,3,0,-5,1,1,4,-1,-3
1615920431479036,-6,0,0,-3,-4,-5,-1,-3
1615920431479036,1,-1,-4,-13,-8,-8,-6,-1
1615920431495015,-5,-1,0,8,1,1,-2,-2
1615920431495015,2,-5,-5,-5,-1,0,-5,-1
1615920431496012,3,3,7,4,1,4,7,-1
1615920431496012,0,1,-7,-7,-2,1,2,3
1615920431508952,-4,-1,6,2,1,-5,5,-3
1615920431508952,1,1,-1,-1,1,10,1,1
1615920431517031,-2,-2,-2,14,5,-9,-4,-11
1615920431517031,-5,-1,0,-6,-3,-4,-1,-2
1615920431531893,3,0,0,-4,-3,3,-3,-3
1615920431531893,0,1,-1,1,1,-6,3,2
1615920431538896,-1,-1,-2,4,-4,2,-2,2
1615920431538896,-4,0,-3,-11,-7,2,-6,0
1615920431555829,0,2,4,8,7,2,10,-1
1615920431555829,-1,-1,4,0,-1,2,-9,-1
1615920431556852,0,0,-3,-7,-2,-6,-4,-1
1615920431556852,-2,-4,0,3,1,-2,1,0
1615920431570787,-7,-3,-4,1,-2,1,0,1
1615920431570787,2,-2,-9,-7,-1,1,2,-4
1615920431576795,-1,2,13,5,2,1,-7,3
1615920431576795,3,0,2,7,3,1,3,-2
1615920431591731,-4,-4,-3,-12,-12,-3,-6,-2
1615920431591731,-3,-3,-2,3,1,-6,1,-10
1615920431599802,2,2,-3,-20,-3,-3,4,-2
1615920431599802,0,2,-3,10,-3,5,-6,3
1615920431614766,0,-2,-2,-1,-1,-9,-1,-3
1615920431614766,-2,0,-2,-2,3,1,-2,-1
1615920431615764,-5,-4,-3,9,-4,7,-3,-3
1615920431615764,10,0,-1,-7,0,-8,3,1
1615920431629724,-1,-2,4,4,0,3,-2,1
1615920431629724,-2,0,-4,-1,-3,3,6,0
1615920431636706,2,-1,-5,-5,-1,-5,-2,-2
1615920431636706,-2,1,7,-1,-5,-9,-6,-2
1615920431651692,0,0,-3,-2,2,1,-3,-1
1615920431651692,3,0,1,1,0,-1,0,2
1615920431659645,-4,-7,-6,-10,0,-2,0,-3
1615920431659645,-2,-1,-5,6,-2,-2,3,-2
1615920431674604,2,0,-3,-6,-2,-1,2,11
1615920431674604,-6,-1,8,3,1,0,-9,-6
1615920431675603,3,-1,-4,2,5,0,1,1
1615920431675603,-8,-2,1,-3,-4,-2,-1,-1
1615920431690562,6,2,-3,-5,0,-2,1,-2
1615920431690562,-1,-2,-4,4,3,2,-2,2
1615920431696545,-4,-2,-3,-3,-3,-7,-8,-3
1615920431696545,8,-4,-2,-4,-3,1,0,-3
1615920431713500,-4,2,0,7,3,3,-3,-7
1615920431713500,2,1,2,1,-5,-6,3,5
1615920431719484,2,0,2,1,-1,1,2,-2
1615920431719484,-7,-2,-7,-3,4,3,-2,-1
1615920431735082,-2,1,16,4,0,-10,-4,-1
1615920431735082,2,-1,-2,-10,-4,1,3,-2
1615920431735980,-5,-2,-3,6,-3,2,0,0
1615920431735980,-1,-2,-6,7,5,2,-2,-2
1615920431751111,1,4,7,-3,-1,6,2,8
1615920431751111,-2,0,-2,0,0,-3,10,-2
1615920431757194,2,-2,-5,-2,-1,-5,-7,1
1615920431757194,-1,2,7,-3,-2,-1,0,0
1615920431772060,1,-3,-7,5,0,3,-2,2
1615920431772060,-2,-2,-2,-2,-3,4,-2,-1
1615920431779158,-11,1,-1,-4,-1,0,3,1
1615920431779158,9,-1,0,-9,-8,-6,-3,0
1615920431795207,3,-4,-3,3,6,4,0,-6
1615920431795207,0,-2,0,3,2,-2,2,2
1615920431802161,0,2,-2,-2,1,3,-1,-2
1615920431802161,-6,-1,4,0,0,-3,0,0
1615920431811164,-6,-5,-11,-10,-1,2,2,-4
1615920431811164,7,1,0,12,11,3,-5,-3
1615920431817151,4,-1,0,-12,-6,-6,1,1
1615920431817151,-4,-3,-3,8,3,-2,-1,3
1615920431832126,-2,-2,-1,-1,-4,4,-3,-12
1615920431832126,-2,1,-1,-7,-5,-3,-4,1
1615920431839778,1,0,2,-3,-1,2,3,1
1615920431839778,0,-1,-2,-1,-1,1,-7,-1
