timestamp,emg1,emg2,emg3,emg4,emg5,emg6,emg7,emg8
1615919049591370,-2,1,5,0,-17,-7,6,3
1615919049591370,1,0,-2,-2,-4,-3,-6,-1
1615919049591370,-3,0,-2,4,11,-1,1,5
1615919049591370,-3,-2,-1,-4,-19,11,10,1
1615919049614378,-1,-3,-4,0,16,-15,-4,3
1615919049614378,-1,-2,4,-1,-6,-1,-1,-6
1615919049615375,-3,0,-4,-1,-5,0,-24,0
1615919049615375,11,0,0,-1,3,-6,-24,1
1615919049628338,-4,-2,-1,-2,-11,-11,0,-9
1615919049628338,-1,0,-1,-3,0,13,8,2
1615919049629335,-1,0,3,5,8,-2,-1,6
1615919049629335,1,1,0,-1,9,-7,1,-6
1615919049651300,6,-2,-1,-3,-15,-2,-10,-2
1615919049651300,-4,0,-3,1,-4,-2,-12,-3
1615919049651300,0,0,-2,-1,23,15,2,0
1615919049651300,-2,-1,1,1,3,-4,9,2
1615919049673217,1,-1,-2,-3,6,-1,19,8
1615919049673217,-2,0,-1,2,10,-3,-21,-5
1615919049674213,-1,1,-1,-1,35,-1,2,-3
1615919049674213,-3,0,-4,-4,0,2,21,0
1615919049688859,-3,-3,-4,2,0,1,11,2
1615919049688859,1,-1,-2,-1,22,6,-3,1
1615919049688859,3,3,1,1,-3,-11,-13,-5
1615919049688859,-31,-7,-2,-1,-7,-2,35,-5
1615919049711386,-3,2,2,-1,-6,4,-13,9
1615919049711386,1,-1,0,2,6,4,1,-3
1615919049712216,0,0,0,-5,-18,0,-1,-1
1615919049712216,3,0,1,-1,-1,-4,-7,0
1615919049735161,1,0,0,-1,-6,9,7,-1
1615919049735161,-4,-3,0,-6,-12,-4,-7,-2
1615919049735161,-2,-4,-4,-1,-4,-8,10,0
1615919049735161,4,0,0,-1,-12,-11,3,6
1615919049748126,-2,-2,0,0,-2,8,8,-4
1615919049748126,4,0,-3,-1,-5,-10,3,0
1615919049749123,-5,-1,0,0,-3,1,1,-5
1615919049749123,1,-2,-5,-4,1,6,-4,4
1615919049771489,0,-1,-5,-3,-4,-5,6,-4
1615919049771489,-1,2,9,6,2,8,0,-3
1615919049771489,0,-3,-2,-6,-22,-4,10,6
1615919049771489,-1,1,-2,3,5,2,-15,2
1615919049794433,-2,0,1,4,10,2,-10,-10
1615919049794433,0,-2,-4,-5,-12,-3,24,3
1615919049794433,-2,-1,0,-1,-6,-15,6,-1
1615919049794433,2,-3,1,1,15,1,-41,-1
1615919049808417,6,1,-2,-4,-11,-7,-8,0
1615919049808417,-24,-4,-2,1,6,-1,-5,-5
1615919049809416,5,0,-1,2,21,3,1,-3
1615919049809416,2,1,-3,-7,-23,-5,-14,-13
1615919049831358,-2,0,0,0,13,3,-10,0
1615919049831358,6,-1,-3,-4,-11,-9,-1,2
1615919049831358,-2,-2,-1,-1,-8,-11,-8,-1
1615919049831358,-5,-2,-1,-1,20,15,1,-2
1615919049854125,1,1,0,-1,-24,-15,-4,2
1615919049854125,4,0,-3,2,-4,9,10,5
1615919049855241,-5,0,-1,-2,3,14,-8,-6
1615919049855241,6,-2,-1,-3,2,-15,-3,0
1615919049868842,-4,-3,-2,-1,-11,10,10,-3
1615919049868842,1,0,-4,-3,-7,-12,-1,2
1615919049868842,-4,-2,5,4,7,-2,-42,0
1615919049868842,-4,0,-2,-2,3,-4,8,-4
1615919049907062,-3,0,1,-2,-2,-2,-4,0
1615919049907062,0,-2,-6,0,-8,0,-7,-3
1615919049907062,0,-2,-2,0,7,11,13,-1
1615919049907062,2,-1,1,-1,-6,2,19,7
1615919049914022,1,0,-1,2,9,-3,-7,-2
1615919049914022,2,0,3,-4,-6,1,-2,-3
1615919049914994,-3,-1,-2,-3,-13,-6,7,-1
1615919049914994,0,0,3,5,20,11,5,4
1615919049928956,4,-2,-3,-5,-21,-13,0,-2
1615919049928956,-20,-1,3,3,7,-10,18,-1
1615919049928956,1,-1,0,1,-9,-3,24,-1
1615919049928956,0,-1,-4,0,-10,-2,-5,-2
1615919049950899,1,0,1,2,32,17,2,-2
1615919049950899,6,-1,-1,-4,-24,2,1,-1
1615919049951894,-3,-2,-3,-4,18,-5,-28,-5
1615919049951894,-1,1,8,6,10,1,1,0
1615919049973594,-6,-1,0,-3,-32,-7,6,-1
1615919049973594,4,3,-2,-3,-3,1,-7,1
1615919049974489,-8,-2,-5,-4,-7,-6,14,7
1615919049974489,2,-2,-3,-2,-5,-8,2,-2
1615919049988831,-1,-2,0,0,2,25,6,5
1615919049988831,-1,-3,-1,1,14,-20,-23,-4
1615919049988831,3,1,4,0,-5,0,3,0
1615919049988831,-1,-1,-2,-1,-9,-7,-6,-2
1615919050011483,-4,-1,1,1,9,-8,0,-2
1615919050011483,0,0,-1,3,-16,2,0,-2
1615919050011483,0,-2,1,-6,-19,12,12,8
1615919050011483,0,-3,-6,-6,-16,-10,0,1
1615919050033430,-2,0,8,5,9,-7,-4,-1
1615919050033430,2,-1,-2,-1,-15,0,-15,-4
1615919050034427,-1,-2,-3,3,-7,-7,-2,-5
1615919050034427,-2,-2,-1,-7,13,11,0,0
1615919050048401,0,-1,-7,-3,-8,-9,-19,-5
1615919050048401,1,0,3,3,24,7,11,0
1615919050049387,0,0,-1,0,-3,-1,2,2
1615919050049387,-2,-1,-4,-4,-17,-5,-6,-4
1615919050071585,0,-3,-2,-2,4,-3,-1,-1
1615919050071585,1,-2,-2,-2,8,-1,-5,0
1615919050071585,1,-1,-4,-1,-7,-4,-10,-3
1615919050071585,0,2,4,0,-1,-1,6,-2
1615919050093841,-2,0,-3,-5,-7,3,9,-2
1615919050093841,0,-1,-2,-1,3,9,-6,-1
1615919050094820,1,-2,-3,0,-16,-13,-3,-1
1615919050094820,-3,-2,-1,2,15,4,0,-4
1615919050108874,1,2,-1,-2,-7,3,-1,3
1615919050108874,16,-4,-1,2,15,-4,-18,9
1615919050108874,-24,-2,1,-1,-4,5,-6,-9
1615919050108874,0,0,-2,3,40,-7,0,0
1615919050130821,-2,-2,-3,-3,-16,-2,7,1
1615919050130821,2,2,-2,0,0,7,-2,-1
1615919050131844,6,-2,0,-6,-23,-8,-5,-3
1615919050131844,-1,-3,0,-1,-12,1,-10,0
1615919050153978,-2,-1,-2,2,8,1,-2,-2
1615919050153978,-3,-3,-5,-7,33,2,-1,-6
1615919050153978,4,-1,8,7,16,12,12,2
1615919050153978,-5,-1,-4,-6,-8,0,2,-4
1615919050167958,3,-2,-2,-3,-9,-1,9,-1
1615919050167958,-3,0,0,-2,-12,-7,5,-1
1615919050175965,2,2,-2,0,5,3,12,1
1615919050175965,1,-3,0,3,6,6,-10,-9
1615919050191387,-3,-2,-3,-3,-11,-18,3,4
1615919050191387,-5,0,0,-1,9,10,0,-1
1615919050191387,2,-1,-4,-4,-21,-9,-14,-2
1615919050191387,0,2,1,3,-22,0,8,7
1615919050213365,-2,-2,-3,-2,12,-10,-8,-10
1615919050213365,-4,-2,1,-2,-19,-5,21,-1
1615919050214362,5,-1,-1,-1,17,6,5,3
1615919050214362,-1,-1,0,-1,-2,2,1,5
1615919050228368,-2,-2,-1,-1,-7,-7,-8,-3
1615919050228368,-2,-1,-2,-1,-11,1,34,-3
1615919050236333,1,-1,-5,-4,13,-10,-44,-4
1615919050236333,1,2,1,-1,-7,-6,0,-2
1615919050251261,11,0,0,2,17,12,1,5
1615919050251261,-7,-2,-2,-7,-40,-2,-11,-4
1615919050252259,6,-2,-1,0,-5,5,10,-4
1615919050252259,-2,-2,-4,0,34,7,0,3
1615919050273228,3,-1,-1,-3,-8,-11,-6,0
1615919050273228,0,0,3,1,0,7,-4,2
1615919050274198,-2,-3,-3,0,12,3,4,-1
1615919050274198,2,0,-1,-2,-33,-10,-9,-1
1615919050288238,-3,0,2,-1,17,6,-2,-3
1615919050288238,-1,1,-4,1,6,1,-2,5
1615919050296218,-3,1,6,-4,-2,-6,15,-5
1615919050296218,-2,-1,-1,-2,-25,-5,11,-2
1615919050311391,-6,-2,-1,0,1,-1,-20,1
1615919050311391,-1,-2,-1,2,4,8,-13,-5
1615919050312229,-1,0,-5,2,7,-8,5,3
1615919050312229,0,-1,-4,-4,-19,-2,-3,-2
1615919050333203,-2,0,4,4,-1,-7,21,-5
1615919050333203,3,-1,-3,-2,-4,2,-8,0
1615919050334178,-3,-1,0,1,8,-1,0,1
1615919050334178,-1,-1,-2,-4,-1,-8,-9,1
1615919050357374,-4,-1,-2,-3,-30,-16,-12,0
1615919050357374,-1,-1,3,0,-15,-4,-4,-2
1615919050358372,-3,1,-4,-2,0,6,10,2
1615919050358372,-3,-2,0,0,19,-6,-3,-4
1615919050378771,-1,-1,-1,2,-4,8,5,1
1615919050378771,-3,-3,0,-1,30,-8,-25,-10
1615919050379772,-1,-2,-4,-4,-4,0,-6,-6
1615919050379772,0,0,1,4,1,7,9,6
1615919050393917,0,1,-1,-4,5,3,-9,0
1615919050393917,-2,-1,-3,-3,-9,-11,7,2
1615919050394861,-3,-1,1,0,3,1,-1,0
1615919050394861,-1,-1,0,0,8,8,0,-5
1615919050408278,-1,1,-3,0,12,5,0,3
1615919050408278,-3,-2,-3,3,-2,-3,-7,-1
1615919050415793,-1,-2,1,-7,-9,-3,3,0
1615919050415793,0,0,-2,-2,12,-2,1,-1
1615919050431320,0,0,5,0,-24,-6,-1,-2
1615919050431320,0,-1,-2,-2,15,-6,5,-1
1615919050432321,1,0,1,2,-22,1,-7,1
1615919050432321,-2,0,-4,0,53,15,-2,-1
1615919050452892,-2,-3,-2,-3,6,1,-4,-2
1615919050452892,-3,2,-1,-3,2,3,13,0
1615919050461605,0,0,-1,0,12,-4,-41,0
1615919050461605,1,0,1,0,-14,1,-1,-5
1615919050477177,-1,-1,-1,-3,-15,6,14,4
1615919050477177,0,-1,2,1,9,-8,-30,-3
1615919050477177,1,-1,-4,-4,-3,0,20,-1
1615919050477177,0,0,1,0,-12,-7,-16,-3
1615919050491272,0,-3,-2,1,38,5,-25,-1
1615919050491272,2,-1,3,-4,-40,-4,31,0
1615919050492269,-2,-3,-3,5,13,2,3,1
1615919050492269,0,-1,5,-4,-32,-5,-10,-5
1615919050513364,-1,1,-3,-1,20,0,3,-3
1615919050513364,-1,-1,-4,-2,1,-3,-6,6
1615919050514360,-1,-1,1,1,4,6,15,0
1615919050514360,1,-2,0,1,-7,3,-29,-1
1615919050537203,-1,-2,-3,-6,11,-25,10,0
1615919050537203,-1,-2,-1,-3,15,10,-7,-4
1615919050537203,-1,-2,-4,-2,8,-2,4,0
1615919050537203,1,0,0,3,-3,-3,4,3
1615919050550928,-2,-2,1,-1,-12,11,3,2
1615919050550928,0,0,-2,0,13,3,2,-4
1615919050551826,-1,-1,0,-1,-20,-18,-16,3
1615919050551826,-5,-3,-3,-1,20,2,-2,-17
1615919050573971,-1,0,-3,-1,-5,0,20,-6
1615919050573971,-1,-2,-1,-5,16,2,1,4
1615919050573971,-3,-1,0,1,1,4,21,-3
1615919050573971,-2,-2,-2,1,5,4,14,0
1615919050596845,-2,0,0,-1,-12,-16,-47,-3
1615919050596845,-2,-3,-2,-3,-28,-9,-2,-1
1615919050597868,-1,0,-3,-4,-2,2,3,-1
1615919050597868,1,0,-1,1,8,5,1,3
1615919050610831,1,-1,1,1,-14,-4,8,-1
1615919050610831,0,2,0,0,4,-4,1,2
1615919050611805,-2,-1,0,2,7,1,-18,-5
1615919050611805,-2,0,2,-6,-49,-8,20,6
1615919050633771,1,0,-2,-5,2,10,-4,-2
1615919050633771,2,0,0,1,-24,-6,-9,-5
1615919050634744,0,-1,4,2,10,8,10,0
1615919050634744,1,0,-4,-2,-4,-15,-11,-1
1615919050656568,1,-1,-1,0,-5,-2,47,19
1615919050656568,-3,-2,-2,-3,18,18,-9,-11
1615919050657566,0,-1,0,1,-3,-11,-15,-2
1615919050657566,-1,-1,-3,-2,-1,3,-3,-3
1615919050670555,0,3,10,3,-1,-7,8,3
1615919050670555,-1,1,-4,-2,-14,5,-7,2
1615919050671561,0,0,-3,2,5,0,-4,-1
1615919050671561,2,-4,-3,-2,-7,-6,2,-2
1615919050693468,-6,-2,-5,-1,-1,-1,-14,-8
1615919050693468,-2,-1,1,1,0,3,-5,-2
1615919050694467,-2,-1,-2,-5,-2,1,2,-1
1615919050694467,-3,-1,0,1,0,-1,-2,1
1615919050716407,0,-2,-3,0,-5,8,-4,-6
1615919050716407,-1,1,0,0,9,-15,0,0
1615919050717405,0,-1,-3,-1,4,5,20,1
1615919050717405,0,0,0,-1,-15,-8,-25,-2
1615919050731393,1,-1,-1,2,10,12,-1,7
1615919050731393,-2,-1,0,3,14,-12,-3,-18
1615919050731393,2,-1,0,-4,-34,-6,4,1
1615919050731393,0,-1,0,0,16,7,2,0
1615919050761312,-3,-3,-5,-4,-12,-2,-9,-3
1615919050761312,-1,-2,-5,-1,-3,-1,10,6
1615919050762285,0,-1,6,3,12,7,-9,-2
1615919050762285,-1,1,0,-3,9,-11,0,-5
1615919050776956,-2,-2,-3,1,7,8,1,-2
1615919050776956,-1,-1,1,1,-9,-12,-9,-1
1615919050777929,-1,-1,-4,-8,0,-10,-1,-2
1615919050777929,1,-4,-2,-1,-17,1,21,6
1615919050798968,0,-2,0,-4,6,6,-40,-7
1615919050798968,1,1,1,2,-1,-4,6,2
1615919050799965,0,0,-2,0,6,-1,-16,-2
1615919050799965,-1,-1,-2,0,13,1,16,-1
1615919050813927,2,3,2,0,-19,-12,12,2
1615919050813927,-1,-1,2,1,3,11,-4,2
1615919050813927,-2,-1,-2,-1,-23,-8,-30,-16
1615919050813927,-2,1,1,-2,-18,-7,-1,2
1615919050836617,1,-2,-1,5,26,-3,1,-3
1615919050836617,-3,-3,-7,-7,-21,-4,-1,2
1615919050837588,0,0,5,1,18,17,7,5
1615919050837588,-3,-3,-2,1,4,-1,4,-4
1615919050851465,-1,-1,-1,2,15,-6,11,0
1615919050851465,-2,1,1,-2,-6,-2,-7,3
1615919050851465,-3,-2,-3,-2,-2,2,5,1
1615919050851465,0,-1,-2,-2,-6,4,-7,-2
1615919050873810,-3,-1,-2,0,5,8,20,-2
1615919050873810,2,-2,-3,-4,-9,1,2,1
1615919050874774,-1,0,4,0,-1,-9,2,2
1615919050874774,0,1,-1,2,36,17,-5,1
1615919050896736,0,-1,-4,-12,-62,-16,-12,-6
1615919050896736,1,-1,4,2,-2,10,11,8
1615919050897712,1,-1,0,0,5,-6,-6,-2
1615919050897712,1,-1,-3,1,-8,-8,-5,-1
1615919050911525,-2,-3,-1,-2,-4,5,0,-3
1615919050911525,1,0,0,3,-7,-1,-4,1
1615919050911743,-1,0,-2,-5,-40,-3,22,3
1615919050911743,-3,-2,-3,0,19,3,-19,2
1615919050942183,-1,0,7,5,5,8,-4,0
1615919050942183,-3,-2,-3,-10,-22,-21,-3,-5
1615919050942792,-1,1,-2,4,25,-1,5,3
1615919050942792,-1,-2,-1,-7,-62,-7,1,-4
1615919050957240,-1,0,-4,1,13,12,-4,-6
1615919050957240,-2,-1,-3,4,31,1,7,3
1615919050957240,1,-2,1,-2,-1,-10,-1,-2
1615919050957240,-1,0,1,-2,11,-1,-5,0
1615919050971603,-1,0,-1,0,-20,-4,4,-5
1615919050971603,0,-3,-5,-3,-4,10,-6,-2
1615919050971603,-3,-1,-4,0,31,-11,21,-4
1615919050971603,1,0,2,2,-7,5,13,11
1615919050993913,-1,-2,0,-3,-23,-15,-25,-16
1615919050993913,0,0,1,3,17,4,-10,-3
1615919050993913,-3,0,0,-3,-2,10,19,-1
1615919050993913,0,-1,-1,0,2,-1,-1,3
1615919051016815,0,-1,-5,-1,41,0,5,4
1615919051016815,2,-1,2,1,-4,-1,-1,-4
1615919051017778,0,-2,-4,1,-7,14,-9,1
1615919051017778,-1,-1,3,-3,-2,-6,6,-4
1615919051030764,-2,-1,-7,-2,0,-18,-20,-1
1615919051030764,-2,0,9,0,13,0,4,-1
1615919051031738,0,-1,-1,-1,-11,3,-1,2
1615919051031738,-1,-1,-2,0,2,7,-2,-4
1615919051053420,-1,0,-2,1,11,5,-5,0
1615919051053420,-1,-1,-2,1,-3,3,4,2
1615919051054313,-3,-1,0,-4,-1,-8,-17,-2
1615919051054313,-2,-1,0,2,13,9,20,-4
1615919051077088,0,0,2,-6,-24,-26,11,2
1615919051077088,-4,-1,-2,2,6,5,11,-4
1615919051077088,-2,-3,0,2,26,6,-43,-13
1615919051077088,-1,1,-4,1,2,-7,2,1
1615919051090911,-1,0,2,-1,-1,4,4,1
1615919051090911,1,2,-1,-2,-5,2,19,0
1615919051098918,-1,-1,-3,-5,-2,-2,-2,0
1615919051098918,0,0,1,0,-3,-9,-20,0
1615919051113832,-4,-3,-3,-3,-2,12,20,-2
1615919051113832,0,0,-2,0,10,-4,-13,-3
1615919051113832,2,0,-2,-2,-36,-13,4,7
1615919051113832,-6,-2,-1,-3,-5,0,-8,-3
1615919051136834,0,-2,-1,-2,4,17,-8,4
1615919051136834,-2,-2,-2,0,1,5,12,2
1615919051137805,0,1,0,2,-31,-12,19,-5
1615919051137805,-1,-3,-5,-5,-8,3,-1,-2
1615919051150770,0,-1,1,5,12,16,7,4
1615919051150770,-2,-2,-2,-7,-9,-13,-4,-4
1615919051158748,-2,-2,1,0,11,-2,-36,-10
1615919051158748,-2,0,-1,0,-4,-4,6,-1
1615919051173854,-1,0,-2,-5,-25,-8,-10,-2
1615919051173854,0,1,-1,3,-4,-4,-15,-1
1615919051173854,1,1,1,2,18,4,9,4
1615919051173854,0,-1,-3,-3,0,-4,10,-1
1615919051196813,0,0,-1,3,15,1,-7,-2
1615919051196813,-1,-3,-1,-5,-9,-1,-23,1
1615919051197809,0,-3,-4,-1,8,6,24,3
1615919051197809,2,1,8,4,-3,7,-1,-2
1615919051210796,-1,-2,-1,-1,3,-28,-7,-4
1615919051210796,1,0,-1,-2,2,1,-8,2
1615919051218984,-1,-2,-2,-1,7,7,4,2
1615919051218984,-1,-1,-3,0,7,-7,5,-2
1615919051233969,1,0,-1,1,-42,0,3,-1
1615919051233969,-5,-4,-2,-5,-18,1,4,2
1615919051233969,-3,-1,0,-1,8,-4,-28,-16
1615919051233969,-2,-3,-1,0,-5,2,10,1
1615919051256921,-1,-1,1,1,14,-9,-39,0
1615919051256921,0,0,0,2,0,-2,18,0
1615919051263905,-1,2,-1,-1,-14,0,3,5
1615919051263905,1,-2,-2,-1,19,7,-9,0
1615919051270866,-3,-2,-4,-10,-15,2,11,-4
1615919051270866,0,0,-3,-5,-19,-4,1,-1
1615919051277967,-2,-3,-1,2,-8,-5,-1,1
1615919051277967,-1,0,-1,-3,-6,-2,-12,-6
1615919051294985,-2,-1,-1,1,5,3,5,3
1615919051294985,0,-1,-3,0,1,-5,-6,-3
1615919051295983,-1,-1,6,4,-1,1,11,1
1615919051295983,1,0,-2,0,-9,-2,0,1
1615919051316059,0,-2,-2,0,16,10,8,1
1615919051316059,0,-1,-2,-2,-2,-14,-8,-4
1615919051317032,0,0,-5,0,16,1,11,2
1615919051317032,0,-1,0,2,1,1,-28,0
1615919051330733,1,0,4,-6,-11,5,7,4
1615919051330733,-2,-1,0,1,5,5,-12,0
1615919051339040,1,-2,-1,-2,2,-3,6,2
1615919051339040,-1,-3,0,2,-8,0,-16,-8
1615919051368997,0,-1,-1,0,19,-10,16,-3
1615919051368997,0,-1,-2,1,7,11,-1,-1
1615919051369971,0,-1,-1,-5,-17,-12,-5,2
1615919051369971,-1,0,-4,-4,1,-3,-6,1
1615919051376467,-1,-1,0,5,24,9,3,-1
1615919051376467,-2,-1,0,-5,-23,-11,16,-4
1615919051376467,0,-3,-3,2,11,8,-1,1
1615919051376467,0,-2,-3,-6,-12,-7,15,1
1615919051398788,-2,-1,1,2,7,-4,-4,0
1615919051398788,-1,-1,-1,4,27,14,11,0
1615919051399780,-1,0,-4,-6,-20,2,-5,-5
1615919051399780,0,-2,0,-2,19,-6,-3,0
1615919051413820,-2,-2,-1,3,-9,12,5,1
1615919051413820,-1,-2,-2,-4,-4,-3,-11,-4
1615919051414815,0,0,0,-3,-4,1,-5,8
1615919051414815,-1,-1,-5,0,-17,-3,1,-10
1615919051436610,1,2,7,-3,-1,-5,3,1
1615919051436610,-1,0,0,6,17,-12,-9,0
1615919051436610,0,-1,-2,-4,-8,-8,9,2
1615919051436610,1,-2,-3,3,9,-3,-45,2
1615919051459771,-1,-2,-5,-3,-14,2,10,-4
1615919051459771,0,1,0,-3,-21,0,-6,-3
1615919051459771,-1,0,0,3,5,3,2,3
1615919051459771,-2,-2,1,-2,0,-7,4,3
1615919051473516,-3,-1,-2,2,1,0,-5,-3
1615919051473516,0,0,2,-4,-1,3,-10,3
1615919051474423,0,-1,-5,0,1,2,-6,-6
1615919051474423,-2,0,1,0,4,-1,14,1
1615919051495908,0,0,0,2,20,-2,1,2
1615919051495908,0,-1,-2,-1,-21,5,16,1
1615919051496904,-3,-2,-1,1,-17,-8,-35,-15
1615919051496904,-3,0,0,-1,-3,9,10,-1
1615919051518994,1,-2,-5,-7,-79,-22,-11,1
1615919051518994,-3,-2,-2,3,24,4,-39,-4
1615919051519992,-2,-1,0,0,17,8,6,-1
1615919051519992,0,0,3,1,-4,-8,10,2
1615919051533209,-1,0,-2,-1,0,-2,-4,0
1615919051533209,-2,-2,-2,-3,-5,-13,-11,-4
1615919051534116,-1,-2,-4,-5,-15,-5,23,4
1615919051534116,0,0,2,4,8,0,-7,1
1615919051556483,-1,-1,-4,0,17,5,2,0
1615919051556483,-1,0,2,-3,5,-1,1,-2
1615919051556483,-2,-1,0,-3,7,0,6,-2
1615919051556483,-2,-1,-3,-2,-13,2,9,-2
1615919051579456,-2,-1,-1,-1,10,-8,-4,-2
1615919051579456,-1,-2,-2,4,9,12,7,-1
1615919051580428,0,0,-1,-7,-38,-27,-6,10
1615919051580428,-1,0,-3,-3,-3,-4,-24,-16
1615919051593390,-1,-1,-1,-1,-1,2,-1,-2
1615919051593390,1,1,3,3,30,13,20,6
1615919051594387,2,-1,0,-2,-12,0,-7,3
1615919051594387,0,-2,-2,-4,-20,-17,7,-4
1615919051616353,0,1,-1,3,26,7,-3,5
1615919051616353,0,0,0,-2,-38,-14,2,0
1615919051616353,-1,0,0,3,66,18,11,-2
1615919051616353,-2,0,-3,-1,5,3,3,0
1615919051640123,-1,-1,-2,-3,5,-2,-7,-5
1615919051640123,-1,-1,-1,1,4,2,24,0
1615919051640123,1,0,3,1,-27,-13,1,-2
1615919051640123,-1,-1,-2,-3,14,10,-29,0
1615919051653833,-2,-3,-5,-2,-4,-12,-6,-1
1615919051653833,0,-1,0,-5,-5,-4,6,3
1615919051654814,-3,-2,-3,5,19,-3,-8,-4
1615919051654814,0,0,0,1,12,6,10,3
1615919051676774,-1,-1,-2,-2,-16,3,3,-2
1615919051676774,0,-1,-5,-1,-5,2,-4,-2
1615919051677760,0,-1,-3,-3,-19,8,1,11
1615919051677760,-1,0,1,-1,-8,-16,9,3
1615919051698951,1,-1,-3,0,11,8,1,-1
1615919051698951,-1,-1,2,1,9,4,9,-1
1615919051699948,0,-1,-1,-5,-30,-14,-7,0
1615919051699948,-3,-3,-4,-3,12,-4,2,0
1615919051713908,-1,0,0,0,4,3,5,0
1615919051713908,-2,-3,-3,-5,-13,-10,0,1
1615919051713908,0,-1,1,3,46,8,-27,-6
1615919051713908,-2,-3,-4,-8,-40,-5,14,-1
1615919051735874,-1,-1,3,1,2,-3,-5,-4
1615919051735874,-1,-2,-2,1,2,5,9,-4
1615919051736845,-2,-1,-4,-1,5,-5,-6,-2
1615919051736845,0,0,1,1,-2,-1,3,-2
1615919051758814,0,0,0,0,4,6,3,1
1615919051758814,-2,2,-1,-2,-5,-13,-7,0
1615919051759808,-2,-2,-2,-1,-1,10,30,-4
1615919051759808,-1,0,-1,-1,10,-1,2,5
1615919051781725,0,-2,-1,-3,-10,2,-23,-6
1615919051781725,-3,0,1,-3,-5,-1,-6,-13
1615919051782723,1,0,-1,0,10,4,1,1
1615919051782723,1,-2,1,3,-4,11,1,2
1615919051795748,-1,-1,-3,-5,-13,-21,-4,0
1615919051795748,-3,-3,-2,0,1,-1,-5,2
1615919051796746,-2,-1,-1,1,10,8,-3,-3
1615919051796746,0,2,9,0,-13,1,10,-3
1615919051819801,0,-2,-3,-3,-5,-9,-2,-2
1615919051819801,2,1,2,0,-5,-1,-2,2
1615919051819801,-2,0,-2,4,4,9,-11,-4
1615919051819801,-1,-3,-4,-5,-7,-5,-7,-3
1615919051849736,0,0,1,-3,-11,-2,3,0
1615919051849736,-1,-1,-4,1,14,-3,3,0
1615919051849736,-3,0,3,0,9,-1,-6,-6
1615919051849736,-1,-3,-3,-1,-32,0,-8,0
1615919051855704,1,1,1,2,36,12,10,6
1615919051855704,-2,-3,-5,-2,-18,-10,-42,-11
1615919051856719,-2,-1,-2,-1,-1,2,1,-1
1615919051856719,-1,0,-2,-2,0,4,-4,1
1615919051879620,-1,0,1,1,12,-18,9,-2
1615919051879620,1,0,1,1,-1,-5,6,5
1615919051879620,-2,-4,-3,-2,-9,-11,4,-3
1615919051879620,0,-2,-2,-3,-10,-4,-18,-1
1615919051893661,-2,-1,0,0,19,13,15,-4
1615919051893661,0,1,-1,-2,18,-5,5,3
1615919051894579,0,0,0,-2,2,-3,-8,-1
1615919051894579,-1,-2,-3,-2,-9,1,1,-1
1615919051915735,-1,-2,0,0,-17,-6,-18,4
1615919051915735,-1,-3,0,-1,-4,-2,11,-3
1615919051916732,0,1,-2,0,-14,7,4,-2
1615919051916732,2,0,4,1,34,2,9,9
1615919051938828,-2,-1,-2,-1,-7,1,-2,-9
1615919051938828,-1,-3,-2,-6,-18,-2,8,0
1615919051945880,-1,-1,1,1,-9,7,1,4
1615919051945880,0,0,-3,2,8,-19,1,-3
1615919051954065,-2,-1,-2,2,-4,10,-3,2
1615919051954065,-1,-1,-2,-2,8,-4,-1,-1
1615919051954065,1,-1,1,-2,-6,-4,4,2
1615919051954065,-2,-2,0,2,10,1,-20,-8
1615919051976601,0,-1,-1,-1,-3,8,24,5
1615919051976601,0,-1,-1,-1,-3,6,-47,-4
1615919051976601,-3,-1,-1,-1,0,-7,-4,-3
1615919051976601,0,0,0,3,20,5,18,0
1615919051999815,-2,-2,-2,-8,-22,-10,-4,-1
1615919051999815,1,-1,2,2,-5,4,0,1
1615919051999815,0,-3,-3,-3,-9,-4,10,-1
1615919051999815,-3,-3,-3,-6,-18,-5,-5,-6
1615919052012870,-2,-1,0,1,6,-8,-7,-3
1615919052012870,-1,1,-2,1,1,-3,-1,-1
1615919052020877,1,-2,-6,-4,4,-1,4,-2
1615919052020877,0,0,3,2,-13,2,12,0
1615919052035806,1,0,4,3,2,-13,5,0
1615919052035806,-2,0,-2,-2,1,-2,-7,-7
1615919052036804,2,1,0,-1,0,4,-5,5
1615919052036804,0,-2,-7,-2,15,5,-7,0
1615919052058809,-1,-1,-1,-1,-3,5,1,-4
1615919052058809,1,1,1,0,0,-4,-15,3
1615919052059806,-3,-2,-3,-4,-12,-9,-11,-3
1615919052059806,-1,0,1,1,7,-11,-8,0
1615919052072771,1,-1,1,-1,2,-3,-2,-2
1615919052072771,-1,-2,-4,-1,-8,0,10,1
1615919052080801,-1,-1,1,-4,-11,-4,-6,-3
1615919052080801,-2,-1,-3,0,12,7,4,0
1615919052095908,-3,1,-1,1,8,2,-4,-6
1615919052095908,-2,-2,-4,-5,-2,-2,-11,-6
1615919052096906,-1,0,1,1,-6,-9,6,2
1615919052096906,-2,0,2,3,1,-1,10,1
1615919052119004,1,-2,-4,-10,-42,-8,1,-5
1615919052119004,-1,-1,4,3,42,17,10,4
1615919052119978,0,1,1,1,-13,6,4,-2
1615919052119978,0,0,-2,1,17,-8,-3,0
1615919052133448,-1,1,-4,-2,-15,0,-12,1
1615919052133448,-1,-2,1,0,-2,4,7,2
1615919052141539,0,-2,1,2,7,-4,-19,2
1615919052141539,-1,1,-2,-5,0,13,-2,0
1615919052156484,-2,-3,-3,0,3,-8,-19,-9
1615919052156484,-2,0,2,2,1,4,10,-2
1615919052156484,-1,0,-2,-3,-3,1,1,0
1615919052156484,1,-2,-1,6,22,2,9,-1
1615919052179429,-3,-4,-2,-8,-33,-11,-44,-7
1615919052179429,0,-2,-2,-2,3,1,20,2
1615919052180426,-2,-2,0,4,7,-1,0,-9
1615919052180426,-1,-1,1,0,-1,0,5,2
1615919052192496,0,0,1,-3,7,12,10,4
1615919052192496,-2,-2,-1,0,-1,-14,3,2
1615919052201496,-2,0,-2,-2,-4,6,6,-1
1615919052201496,0,0,0,-2,-19,-5,-3,-2
1615919052216429,0,-3,0,4,5,7,8,3
1615919052216429,-2,0,-4,-4,19,-3,2,-2
1615919052216429,-2,-2,-2,-2,-28,-4,-1,1
1615919052216429,-1,1,2,1,2,-7,9,-3
1615919052239664,0,0,-1,0,10,10,29,0
1615919052239664,-1,-3,-2,1,-16,-2,21,6
1615919052240341,0,-1,-3,-3,-6,-10,-40,-3
1615919052240341,-2,-3,-3,-2,-23,-5,-2,-1
1615919052253335,-1,1,2,2,19,8,7,-6
1615919052253335,-1,-1,-4,-6,7,-6,0,0
1615919052261320,-1,-1,4,-1,0,6,16,3
1615919052261320,-1,-2,0,0,5,0,-15,-4
1615919052276274,1,0,0,-3,-9,-11,-4,5
1615919052276274,-1,-1,-1,-1,-15,-1,-12,-2
1615919052277249,1,-1,-2,3,9,9,11,-2
1615919052277249,-2,0,0,-3,2,-3,-7,-2
1615919052299714,0,0,-1,1,2,-7,5,4
1615919052299714,0,0,-2,-1,-3,0,15,-3
1615919052299714,-2,-3,-4,-3,5,-2,-9,-2
1615919052299714,0,-1,1,0,1,4,4,0
1615919052321748,-1,-3,-2,-2,-5,-16,17,-4
1615919052321748,-1,-2,0,0,-28,6,-5,-3
1615919052322654,2,1,3,-2,17,-12,4,-2
1615919052322654,-2,-3,-4,-6,-32,0,-3,5
1615919052336354,-1,-3,-2,1,7,7,-7,7
1615919052336354,1,2,1,0,10,2,-13,-5
1615919052337374,-3,-1,-2,-2,-8,-11,4,-1
1615919052337374,-1,3,0,3,12,-3,7,-3
1615919052359692,0,-1,1,1,-1,3,5,5
1615919052359692,-1,-1,-4,-4,2,-17,-36,-1
1615919052359692,-1,-4,-5,-4,0,9,-1,-1
1615919052359692,0,1,4,-1,-13,-16,-6,-1
1615919052381639,0,-1,0,3,13,6,29,0
1615919052381639,-1,-2,-1,0,2,8,-8,-4
1615919052382637,2,-2,-1,0,-14,0,6,2
1615919052382637,-2,-2,-5,-5,-1,13,1,0
1615919052403965,-3,-1,0,2,9,-11,-36,-13
1615919052403965,0,0,-1,0,-14,-5,33,-1
1615919052404883,-1,-1,-1,-1,16,-10,-7,-2
1615919052404883,0,-1,-3,-2,7,9,18,2
1615919052418845,0,2,3,2,12,2,-4,4
1615919052418845,-1,-3,-2,1,-15,0,3,-1
1615919052419842,-2,-1,0,-3,-5,0,-8,-3
1615919052419842,0,-1,-4,0,0,-11,-4,-4
1615919052442164,-1,0,-3,-1,11,7,0,1
1615919052442164,0,0,-1,2,16,-3,-6,-2
1615919052442801,-1,-1,2,2,-13,-3,3,1
1615919052442801,-1,-3,-1,-5,-18,-1,-2,0
1615919052455872,-1,-1,-1,-2,15,5,-5,-2
1615919052455872,0,-2,-3,-3,-11,-4,-15,3
1615919052456902,0,1,1,-5,-5,-6,3,-2
1615919052456902,-1,0,0,4,19,4,-7,-2
1615919052478816,-2,-3,-2,-5,-37,-9,-4,1
1615919052478816,-3,0,2,-1,14,9,-5,-7
1615919052479812,1,-1,-1,0,-3,-8,22,11
1615919052479812,0,0,-1,0,-12,-15,-52,-1
1615919052501877,-3,-1,-2,-3,8,8,3,-13
1615919052501877,-1,1,1,0,-1,3,11,0
1615919052502850,-2,2,1,0,-10,2,-11,0
1615919052502850,0,1,0,3,20,16,7,-1
1615919052515865,0,-3,-3,-9,-28,-16,-4,1
1615919052515865,0,-1,3,5,14,6,1,2
1615919052516838,0,-2,-1,0,4,-5,4,-8
1615919052516838,-2,-1,-5,-5,-8,3,8,2
1615919052539712,1,2,4,5,10,6,-14,0
1615919052539712,-1,-3,-1,2,18,5,6,-2
1615919052539712,-1,-1,-3,-2,-24,3,0,4
1615919052539712,0,-1,0,-2,-14,-10,-4,-5
1615919052561676,1,-1,-5,-2,3,0,23,5
1615919052561676,-1,1,-3,1,9,-8,-18,2
1615919052562658,-1,0,-3,-2,10,4,-8,-4
1615919052562658,-2,-3,-2,0,-5,0,-18,-5
1615919052576623,-3,-1,0,0,-10,-14,11,-4
1615919052576623,1,-1,1,2,3,2,-3,-1
1615919052576623,0,1,-2,-2,2,1,10,-3
1615919052576623,0,-2,0,2,-13,-5,13,1
1615919052598559,-2,-2,-1,-1,8,13,-8,2
1615919052598559,-2,-1,0,-6,-31,-1,-3,-5
1615919052599556,0,0,1,3,19,-11,-7,-1
1615919052599556,1,0,0,-1,-5,-1,8,0
1615919052621596,0,-1,4,5,-7,1,-4,1
1615919052621596,-1,0,-5,-2,-4,-1,24,4
1615919052622593,-2,-2,-3,-10,-31,10,15,-4
1615919052622593,1,-1,0,-3,8,-9,10,0
1615919052636630,-1,-2,-1,2,21,0,-16,-2
1615919052636630,1,0,2,-2,-4,6,15,6
1615919052636630,-1,-2,0,7,-3,10,0,-12
1615919052636630,-1,-2,-4,-8,-3,7,4,0
1615919052659086,-1,0,-1,-4,-20,-34,-7,1
1615919052659086,-1,-2,-2,0,4,-3,-9,-1
1615919052659086,-3,0,2,2,9,2,11,-6
1615919052659086,-3,0,0,3,14,-1,-9,0
1615919052681341,0,-2,1,-1,-12,16,-2,0
1615919052681341,0,-1,-5,-7,-17,-11,7,-4
1615919052682341,1,0,0,3,31,-1,-47,-2
1615919052682341,-1,-1,-2,-3,13,1,14,-2
1615919052695827,1,0,0,0,3,6,3,1
1615919052695827,-3,-3,-2,-1,-9,-2,-12,-1
1615919052696794,-1,-2,-1,1,43,17,13,3
1615919052696794,-1,0,-1,-7,-36,-14,-9,-1
1615919052718820,-2,-3,-5,1,10,-2,-8,-2
1615919052718820,0,1,8,5,11,12,5,-3
1615919052719787,-1,-2,-3,-6,-7,-3,-7,2
1615919052719787,1,-1,-1,0,6,-13,-9,5
1615919052741981,-1,0,-2,-3,-20,-4,42,3
1615919052741981,-3,-1,-3,-2,-1,-9,-58,-9
1615919052742901,-1,-1,-1,1,-11,-12,-11,3
1615919052742901,-3,-2,0,2,20,18,-1,-6
1615919052756602,1,-1,-4,-5,-3,-3,6,2
1615919052756602,-1,-2,-1,0,-1,-3,11,0
1615919052756602,-2,-1,1,-4,-11,-12,-1,-1
1615919052756602,0,0,0,3,-11,11,3,-4
1615919052778986,-1,-2,-1,0,16,-3,-22,-3
1615919052778986,-2,-3,-3,-4,-10,-4,30,-5
1615919052778986,0,-1,3,1,-23,-3,-7,4
1615919052778986,-3,-2,-1,0,4,-5,8,1
1615919052802288,0,1,3,1,5,6,-13,-1
1615919052802288,-1,-1,-4,-1,7,-5,-2,1
1615919052802793,1,0,-2,2,-7,-3,19,14
1615919052802793,0,-1,-3,-9,1,2,2,-13
1615919052815743,-2,-1,1,1,6,-5,-27,-3
1615919052815743,-1,-2,0,4,2,18,6,5
1615919052816740,-1,-1,-3,-5,-5,-28,0,-1
1615919052816740,-2,-1,-1,-1,2,4,9,6
1615919052846952,-1,0,-6,-6,-16,2,1,-4
1615919052846952,-3,2,1,-4,-19,-1,-21,0
1615919052847950,-1,-3,-2,5,17,12,-2,-6
1615919052847950,-3,-4,-1,-6,-23,-10,-9,1
1615919052861960,0,0,1,-2,-6,-9,-8,-4
1615919052861960,2,0,2,3,16,1,-1,2
1615919052863981,-2,1,-1,-1,-6,-1,15,-3
1615919052863981,0,1,-2,0,-5,2,0,-1
1615919052876616,1,-1,0,5,-5,6,4,11
1615919052876616,-4,-2,-3,-4,-2,-3,1,-12
1615919052876616,0,-1,-3,-2,12,3,-2,-3
1615919052876616,-1,2,2,2,-5,-2,-20,-2
1615919052898215,-1,-1,-2,-2,26,12,10,-1
1615919052898215,0,1,1,-1,6,-18,-4,3
1615919052899207,0,0,-1,-4,-9,14,-6,-5
1615919052899207,-1,-2,-1,-2,-20,-7,-8,-2
1615919052922320,-3,0,-1,-2,-4,-15,7,-1
1615919052922320,-1,-1,-2,-2,-8,-4,-12,2
1615919052922792,-1,1,7,7,25,14,16,-5
1615919052922792,2,2,3,0,-39,-10,-10,0
1615919052936622,0,0,-2,2,6,10,-2,-3
1615919052936622,0,-1,-1,0,1,7,11,-2
1615919052936622,-3,-2,-4,-10,-26,-11,-30,1
1615919052936622,-1,-2,-2,5,-9,4,3,0
1615919052959052,-1,0,5,3,-1,-3,2,-4
1615919052959052,-1,0,-1,0,5,-4,5,-5
1615919052959052,-1,-3,-4,-5,-20,-1,10,3
1615919052959052,-1,-2,0,0,33,2,8,2
1615919052982131,-1,-1,1,-2,-12,5,-4,-1
1615919052982131,1,-2,-1,-1,-1,3,-2,0
1615919052983133,-2,-1,-1,3,-4,-11,3,0
1615919052983133,0,-3,-4,-4,24,-3,1,-2
1615919052995238,1,-1,-1,3,8,4,8,0
1615919052995238,-1,-1,-1,-4,-26,-1,-4,1
1615919053003984,-1,-3,2,3,-1,-6,22,-2
1615919053003984,0,0,0,1,-1,5,-31,-6
1615919053019415,-3,-1,-3,-4,-8,-1,3,0
1615919053019415,0,-1,0,-1,38,3,-1,0
1615919053020410,-1,1,-3,0,-9,2,-5,-3
1615919053020410,-2,0,1,3,11,-3,-2,-3
1615919053041504,0,-3,-3,-2,-16,0,5,2
1615919053041504,-2,-1,0,2,18,9,-16,-7
1615919053042420,0,-1,-4,-2,16,-2,4,-1
1615919053042420,-3,0,4,3,8,1,-5,-10
1615919053055557,-1,-1,-1,-3,-15,-4,-10,-1
1615919053055557,0,-1,0,3,-2,-8,9,3
1615919053063429,-1,-2,-4,-4,-15,-2,-20,-4
1615919053063429,0,1,-1,-1,6,1,19,2
1615919053087277,2,-1,-1,-1,0,-1,3,-1
1615919053087277,-2,-1,1,1,-14,-2,-4,-3
1615919053087277,0,-2,0,-1,18,1,15,-4
1615919053087277,0,-1,-6,0,5,2,12,2
1615919053101876,-1,0,0,-2,-2,-6,-7,-7
1615919053101876,-1,1,-3,-4,-9,9,12,7
1615919053102771,2,-1,0,1,6,6,-11,2
1615919053102771,-2,-1,-1,-6,-17,3,42,0
1615919053115832,1,-2,1,-1,19,-18,-21,2
1615919053115832,-1,-1,-2,-3,-1,1,7,-4
1615919053123806,-1,-1,-4,-2,-33,3,-10,0
1615919053123806,0,0,8,3,24,0,9,4
1615919053139063,-2,-1,-4,-3,-1,5,-27,-10
1615919053139063,0,-1,-1,-2,-14,-10,11,3
1615919053139063,-1,-1,1,2,10,0,-14,-2
1615919053139063,0,-1,-4,0,3,6,2,4
1615919053161898,-1,0,-1,-4,-24,-2,12,2
1615919053161898,1,-1,-1,1,6,2,-11,2
1615919053163921,-3,-1,-1,-1,20,9,26,-7
1615919053163921,-3,-2,-3,-5,-26,-22,-15,5
1615919053175981,-2,-3,-2,2,16,15,6,0
1615919053175981,1,-2,2,-1,-15,-5,-9,-4
1615919053183524,0,2,2,1,13,4,-1,6
1615919053183524,-3,-3,-2,-1,12,6,25,-11
1615919053199000,-3,-1,-1,-1,-25,-11,-14,-1
1615919053199000,-3,-3,-5,-7,-8,-7,7,0
1615919053199000,0,0,0,2,66,6,-7,-3
1615919053199000,3,1,1,-2,-38,-6,-5,4
1615919053222029,-1,0,-3,0,5,-12,-21,-1
1615919053222029,-2,-1,0,1,6,2,-17,-9
1615919053222919,-1,-2,-3,-4,-4,-11,-15,-3
1615919053222919,-1,0,-4,-2,20,10,1,-3
1615919053235796,3,2,0,1,13,11,13,6
1615919053235796,0,2,5,1,-20,-13,20,3
1615919053243796,-1,-3,-3,-1,-21,-8,-7,-2
1615919053243796,0,0,-3,-1,10,1,-15,-1
1615919053259065,-1,-1,-1,0,-5,4,11,-3
1615919053259065,-1,-4,-6,-6,2,-3,-7,-1
1615919053259065,-2,0,-1,3,-22,-6,-12,-1
1615919053259065,3,-1,0,-6,-16,-2,-4,7
1615919053282113,-2,-2,0,1,17,1,6,-2
1615919053282113,0,-1,-3,-2,-6,-4,20,2
1615919053283111,-1,1,2,3,8,12,-8,0
1615919053283111,-2,-1,-3,-3,-13,-28,-12,-1
1615919053294998,1,-1,1,2,16,13,-7,1
1615919053294998,-3,-2,1,-2,-3,-12,10,-5
1615919053304063,0,-3,-1,-2,-15,-5,11,8
1615919053304063,0,0,0,4,36,11,-8,-3
1615919053318165,1,-1,0,1,-28,2,-18,-2
1615919053318165,-2,0,0,-3,7,-17,-6,-4
1615919053319162,-1,-1,-2,-6,-11,5,6,1
1615919053319162,-1,-2,-3,2,-2,4,4,-3
1615919053341777,-1,-2,-3,-1,9,-11,15,1
1615919053341777,1,-1,1,2,-3,6,-19,3
1615919053342747,-2,-2,1,-1,-11,-6,1,-2
1615919053342747,1,1,-1,2,37,4,-18,6
1615919053363787,-2,0,-1,-1,18,10,18,-6
1615919053363787,0,-2,-3,-2,-19,3,-7,2
1615919053364785,-1,1,1,-2,-12,0,-2,-2
1615919053364785,-1,-2,1,-1,-6,1,8,-1
1615919053378401,-1,-1,0,3,9,-6,1,0
1615919053378401,-1,-1,-5,-1,25,9,-19,-3
1615919053379401,-2,0,-2,-5,-29,-21,20,1
1615919053379401,-2,-2,-1,0,-25,3,-8,-3
1615919053410488,1,0,1,3,8,-8,-10,-2
1615919053410488,-1,-2,0,-1,-5,5,8,0
1615919053410488,-1,-1,-3,5,25,9,-13,-4
1615919053410488,-3,-1,1,-5,-9,-6,3,-3
1615919053424551,-1,-1,-3,-7,-39,-14,22,0
1615919053424551,-1,-2,-1,1,-8,6,1,1
1615919053425546,-1,-2,0,2,20,-1,-6,-2
1615919053425546,-3,-2,-3,-6,-9,-12,0,-8
1615919053439039,0,1,1,1,7,12,13,3
1615919053439039,0,-1,-4,-1,-8,7,4,2
1615919053439039,0,-1,1,-2,10,-8,-3,-3
1615919053439039,-1,-1,-1,3,-1,5,2,1
1615919053461831,-2,-1,-1,-3,-10,-3,-10,-3
1615919053461831,-1,-1,-4,1,6,9,2,-2
1615919053462834,1,1,3,2,6,-10,-32,-6
1615919053462834,-1,-2,-3,-8,-38,4,34,-1
1615919053484774,-2,-2,-2,-3,-7,0,-30,-4
1615919053484774,0,1,2,7,23,-8,-7,0
1615919053484774,-2,-1,-2,-4,-15,4,4,2
1615919053484774,-1,-1,-2,2,13,-1,-13,0
1615919053507231,-2,-2,-1,-1,40,2,5,0
1615919053507231,-4,-3,-1,-3,-32,0,4,0
1615919053507231,-1,-1,-2,-2,1,1,3,0
1615919053507231,1,1,2,2,-7,3,11,1
1615919053522217,-2,-2,-1,0,5,-11,8,-3
1615919053522217,1,-1,-3,2,24,-1,-10,0
1615919053522217,0,1,3,-3,-17,0,5,-3
1615919053522217,0,2,3,-1,-12,-3,-28,-1
1615919053544884,2,0,-2,-6,-10,-17,9,-4
1615919053544884,-2,-3,-2,0,4,4,6,-2
1615919053545884,0,-1,3,4,-6,5,-2,-1
1615919053545884,0,-1,-2,0,12,-7,-16,0
1615919053558763,-1,-1,-1,0,-30,2,-6,4
1615919053558763,-2,0,0,-1,4,4,19,-4
1615919053560784,-3,-2,-5,-3,7,-14,-10,-4
1615919053560784,-1,-2,0,-1,10,1,13,-4
1615919053581934,1,-1,0,2,4,2,-5,8
1615919053581934,-1,-2,-1,-4,-7,3,-7,-6
1615919053582891,-1,-2,-4,2,5,10,19,7
1615919053582891,-1,0,3,0,-15,-10,-8,-2
1615919053604731,0,-1,-1,3,22,13,-4,-2
1615919053604731,-2,-2,-2,-10,-23,-13,10,0
1615919053604731,0,1,-2,0,-4,-2,8,0
1615919053604731,-1,-1,-2,-1,0,0,6,0
1615919053619097,-3,-2,-2,-4,0,-6,-4,-3
1615919053619097,0,1,-1,1,3,0,12,4
1615919053619097,0,-1,1,-3,-19,-5,8,5
1615919053619097,-1,-1,-5,2,27,3,-17,-2
1615919053642899,0,-1,8,0,-28,3,3,2
1615919053642899,-2,-1,-2,-1,26,0,-20,-4
1615919053642899,-2,-4,-4,-3,-9,-7,25,0
1615919053642899,0,-1,-2,-2,2,7,-2,1
1615919053663897,0,0,-5,0,-5,-7,8,0
1615919053663897,-2,-1,-1,-6,-32,-5,-21,-3
1615919053664894,-1,0,0,-1,27,7,-7,-10
1615919053664894,1,-1,-3,1,-8,-4,13,2
1615919053686809,-3,-2,-1,-3,5,4,15,-1
1615919053686809,-1,-2,0,3,18,11,-38,-4
1615919053687786,-1,-3,-3,-8,-28,-13,-20,1
1615919053687786,0,-1,0,0,8,-3,4,0
1615919053701936,-1,1,-1,-2,-7,-3,-9,-1
1615919053701936,0,-1,1,-3,-5,-2,13,2
1615919053702933,-1,-1,-3,1,-10,13,-8,0
1615919053702933,-1,0,0,4,-4,-9,-8,1
1615919053723877,0,1,2,-2,3,0,12,4
1615919053723877,1,-2,-3,3,19,-7,6,-5
1615919053724873,2,0,3,2,7,13,2,0
1615919053724873,0,-2,1,-1,-19,-6,4,2
1615919053739185,-1,0,-2,0,14,5,0,-2
1615919053739185,0,1,0,1,-25,6,17,1
1615919053739185,-1,-2,-3,1,25,-12,4,4
1615919053739185,-2,0,-1,-1,25,3,-4,-11
1615919053761547,-1,0,-1,-5,-54,-4,-1,-4
1615919053761547,-1,-2,1,5,17,11,8,3
1615919053762442,-3,-1,-2,-3,-16,-5,-4,-3
1615919053762442,0,-1,1,0,0,-11,-14,3
1615919053783843,-1,-2,-3,-1,0,1,-21,-6
1615919053783843,0,0,-2,1,29,-6,7,-1
1615919053791565,1,-2,-4,-1,-5,12,4,0
1615919053791565,-2,0,1,-5,-4,-4,-10,0
1615919053798328,0,-2,-2,1,-6,-2,-4,-5
1615919053798328,0,1,0,-5,-3,-4,-17,-5
1615919053799325,-1,-2,-1,-1,3,-8,-2,1
1615919053799325,-1,-3,-7,-3,18,12,28,-2
1615919053829242,0,-2,4,4,13,-17,-24,-2
1615919053829242,0,0,0,-2,-26,2,7,5
1615919053830240,0,1,-1,1,24,5,-6,-6
1615919053830240,-2,0,-2,-1,-10,2,13,-1
1615919053844837,1,-1,-4,0,38,7,19,3
1615919053844837,-1,0,0,-3,-22,-18,-19,-3
1615919053844837,-1,-2,-3,-1,10,12,2,4
1615919053844837,0,-1,1,-1,-12,-7,-10,1
1615919053858340,0,2,0,3,-4,5,-9,-5
1615919053858340,-1,-1,-2,-4,2,-7,0,3
1615919053859337,1,-1,0,0,10,7,11,-2
1615919053859337,-2,-1,-1,-1,2,-6,-40,-5
1615919053882121,-1,-2,-2,-3,-21,-5,-1,-3
1615919053882121,0,-2,1,-4,-3,-11,4,1
1615919053883178,-1,0,2,1,-20,-2,-2,-5
1615919053883178,0,-1,-1,-3,0,8,8,4
1615919053904593,-1,-1,-1,-1,-3,-2,-13,-9
1615919053904593,-2,0,-3,3,3,2,-20,-2
1615919053905569,-1,-1,0,-1,-13,-15,-11,-1
1615919053905569,-2,-1,-4,0,35,11,4,-3
1615919053918534,-2,1,5,3,-9,2,4,3
1615919053918534,0,-3,0,-2,13,6,18,2
1615919053926536,-1,-1,1,4,-1,3,-3,-6
1615919053926536,1,-1,-2,-3,-4,-10,22,4
1615919053941554,0,0,-4,-5,18,4,-4,0
1615919053941554,1,-1,-2,-3,-6,2,8,-5
1615919053941554,-2,-2,0,2,11,-2,0,-1
1615919053941554,-1,0,1,-2,-15,-1,-1,0
1615919053964578,1,-3,-2,1,2,2,8,2
1615919053964578,-1,-1,2,1,-14,-4,7,0
1615919053965573,-1,-4,-4,-1,8,-9,-5,2
1615919053965573,0,0,5,1,-13,-2,5,4
1615919053978538,-6,-3,-4,-6,-16,-6,-18,-14
1615919053978538,-2,0,-2,2,9,2,-2,-1
1615919053986516,-1,0,0,-7,-27,-4,-5,-2
1615919053986516,-1,-1,-2,2,-15,2,4,-3
1615919054001690,1,-2,-3,-5,-2,-12,9,6
1615919054001690,0,-1,2,3,26,5,-32,-1
1615919054001690,0,-1,-4,-2,-5,-5,-2,-3
1615919054001690,-2,-2,1,0,-10,10,-24,-6
1615919054024890,-1,-1,-2,0,11,3,11,5
1615919054024890,-1,0,-1,0,-22,-28,-19,-4
1615919054024890,0,-1,-1,-3,15,1,3,0
1615919054024890,1,-2,-2,0,-16,3,-3,1
1615919054037973,1,-1,-1,1,-11,-2,2,2
1615919054037973,-1,1,1,5,10,9,6,-3
1615919054045887,-1,-1,-4,-3,-4,0,-4,-1
1615919054045887,-2,-1,-4,-8,-5,-10,6,-3
1615919054062020,-2,-2,-1,1,22,11,15,5
1615919054062020,1,-1,-1,-2,-17,-4,-38,-3
1615919054063018,0,-1,1,0,-5,-13,-1,-3
1615919054063018,0,0,-1,3,14,14,-5,-2
1615919054084202,-3,-2,-1,-2,-10,-16,-21,9
1615919054084202,-3,-2,-3,-5,0,4,18,0
1615919054085101,-1,-2,-2,1,-3,5,1,1
1615919054085101,0,2,2,5,28,1,-22,1
1615919054098956,-1,-1,-1,-7,-19,-4,-1,-9
1615919054098956,1,-1,-4,0,-1,2,12,4
1615919054106710,-1,1,4,2,14,0,-3,0
1615919054106710,-2,-3,-1,-5,-47,1,6,-2
1615919054121463,-2,0,-5,-3,21,-12,-15,-5
1615919054121463,-3,-1,0,-1,-10,-1,14,1
1615919054129334,0,-1,-5,-2,-1,-1,-1,2
1615919054129334,2,-1,0,1,21,3,17,-1
1615919054144452,-3,-1,-1,-3,-11,-5,-20,-4
1615919054144452,0,-2,-4,-2,-7,-2,4,-1
1615919054145419,1,-1,-1,2,23,2,15,13
1615919054145419,-2,0,1,1,-7,-3,-3,-9
1615919054158498,2,0,-3,-4,-25,-1,1,5
1615919054158498,0,-3,-2,2,9,0,17,-2
1615919054166695,-1,1,4,0,3,-2,-9,-4
1615919054166695,1,-2,-2,-1,-5,-2,15,6
1615919054181622,2,0,1,0,3,0,3,-2
1615919054181622,-2,-2,1,-4,-9,-1,-5,-4
1615919054181622,0,-1,-1,0,-2,0,-2,-1
1615919054181622,-2,-3,-2,-1,-2,-3,-6,-1
1615919054204589,-2,-1,2,7,9,7,-11,-7
1615919054204589,0,0,0,-1,0,-5,-12,2
1615919054205609,0,-3,-3,-8,-20,0,4,-5
1615919054205609,-2,-1,-3,3,8,-3,-13,-2
1615919054217605,0,0,1,-1,12,8,17,3
1615919054217605,-2,2,2,-1,-1,4,5,-5
1615919054226595,-2,-1,2,-3,-31,-11,-15,8
1615919054226595,-2,-2,-2,-3,12,-3,4,-9
1615919054241713,-2,-2,-4,0,3,-17,-1,-1
1615919054241713,-1,0,-2,-2,4,9,6,2
1615919054241713,-2,-2,-1,0,8,-2,-5,-14
1615919054241713,1,0,2,1,-11,-5,14,9
1615919054263848,-1,0,1,1,4,5,-4,-2
1615919054263848,-2,0,-1,0,15,-3,-3,-3
1615919054264850,1,-1,0,2,-23,8,-1,3
1615919054264850,-1,0,-2,-1,25,-8,10,-1
1615919054287377,-1,-2,-1,-1,-23,-14,0,-7
1615919054287377,-1,0,0,2,20,2,-13,3
1615919054287377,1,-2,-3,-6,-11,-5,-7,-2
1615919054287377,0,-3,-2,3,-2,6,-14,-1
1615919054301692,-2,1,4,-2,-7,-2,7,0
1615919054301692,-2,-1,0,1,-14,3,4,-2
1615919054301692,-2,-1,1,0,19,-2,-2,-1
1615919054301692,-1,-1,-4,-5,6,3,-5,-1
1615919054324912,1,-1,0,-2,-9,-3,9,2
1615919054324912,-1,-1,1,-2,-26,-9,-7,-8
1615919054324912,-1,1,-5,1,13,6,1,-1
1615919054324912,0,-1,1,-2,-1,4,18,1
1615919054347343,1,2,0,6,14,12,-18,-2
1615919054347343,1,-3,-5,-8,-35,-2,4,3
1615919054347343,-3,-2,1,-2,8,-1,3,-1
1615919054347343,-2,-2,-3,-3,-12,-11,1,-3
1615919054368906,-1,-2,-2,-1,22,12,-1,0
1615919054368906,2,2,1,4,5,-5,2,0
1615919054369878,-1,-1,-3,-2,-13,-8,28,-6
1615919054369878,-3,-1,1,-2,-14,-2,-22,-2
1615919054384530,0,-2,-2,2,18,4,7,2
1615919054384530,-4,-1,-1,3,5,-1,3,-8
1615919054385507,-1,-1,-2,1,11,8,-3,-3
1615919054385507,-2,-2,2,-6,-27,-9,-8,0
1615919054422829,0,1,-2,3,7,-4,-3,-4
1615919054422829,0,0,1,-4,-4,5,-1,-2
1615919054423827,-2,2,4,3,-6,-7,-5,-2
1615919054423827,-2,-2,-1,1,21,7,-6,-2
1615919054425821,0,-2,-5,-2,-19,0,-4,-1
1615919054425821,-1,0,8,2,6,-6,-3,4
1615919054428846,-1,-3,-6,-8,-2,8,9,4
1615919054428846,-1,-1,-1,3,14,-5,-11,0
1615919054452306,-1,-2,-2,-3,-18,8,19,4
1615919054452306,0,-1,-4,0,13,-4,-4,0
1615919054452793,-1,-1,1,3,-7,-27,-14,-1
1615919054452793,-1,0,1,1,-31,3,14,-1
1615919054466828,1,0,-1,-6,-4,-5,-10,-2
1615919054466828,0,-2,-4,0,-2,9,25,4
1615919054467824,-1,-1,-1,-3,-10,-7,-14,-2
1615919054467824,-1,-2,-3,0,9,12,-8,-1
1615919054480791,-1,0,0,3,15,-20,13,1
1615919054480791,-2,-4,-4,-9,-21,-1,1,0
1615919054481816,1,-1,-1,3,12,6,-4,8
1615919054481816,0,0,3,2,-1,0,1,-1
1615919054511932,-1,-2,-1,-5,-3,-2,6,1
1615919054511932,-1,-4,-4,0,17,1,-11,1
1615919054512929,-2,-2,-1,-2,-28,-1,7,-3
1615919054512929,-1,-1,-2,-5,-2,-5,-4,0
1615919054526912,-1,-3,-2,2,0,1,-1,-1
1615919054526912,-2,-1,-3,-3,36,-4,4,-8
1615919054527890,-2,1,2,1,1,1,-42,-8
1615919054527890,0,2,-4,-1,-7,-6,10,1
1615919054541610,-1,0,-1,-3,-19,0,-10,-1
1615919054541610,-1,-1,-3,-1,10,-3,19,1
1615919054541610,-2,1,-1,-1,14,6,36,0
1615919054541610,-2,-1,-4,0,3,7,-8,-2
1615919054564421,-2,-2,-2,-3,-27,9,4,1
1615919054564421,-1,1,3,3,-2,-19,-33,-10
1615919054565394,0,-1,-1,2,6,2,1,-1
1615919054565394,1,-1,-1,-1,-4,-9,5,0
1615919054587361,-3,-1,-1,-4,-6,6,-7,-3
1615919054587361,-1,1,0,2,-7,5,8,2
1615919054587361,-2,1,-2,0,-3,0,-8,-2
1615919054587361,-1,0,2,2,15,-1,13,2
1615919054601520,0,-2,-2,-2,13,1,-13,2
1615919054601520,-2,-2,-2,-1,-12,-2,-1,-2
1615919054602548,0,-1,-1,-2,-7,-3,-19,-5
1615919054602548,-2,0,0,1,15,-2,30,-1
1615919054624393,2,0,-1,2,-5,5,4,5
1615919054624393,1,0,-1,-4,8,1,-4,3
1615919054625362,0,-2,-1,-1,-6,3,0,-4
1615919054625362,-1,-3,-1,-2,9,1,-13,-2
1615919054647394,-1,0,1,-3,-42,-14,-5,-1
1615919054647394,0,-1,-1,2,10,8,-1,1
1615919054647394,1,-1,1,1,4,1,33,5
1615919054647394,-3,-3,-3,-4,-10,2,-34,-6
1615919054661026,-2,-1,-2,1,17,-4,-25,-5
1615919054661026,1,-2,0,0,-1,6,8,4
1615919054663023,-1,1,-4,-3,-8,3,7,4
1615919054663023,-2,-1,-4,-1,-15,-12,-2,-1
1615919054684911,1,1,6,3,31,-1,3,5
1615919054684911,-3,-1,-4,-3,-8,-3,-3,-6
1615919054684911,-2,-2,-2,-4,-16,-3,-10,-2
1615919054684911,1,0,-1,-4,7,-4,-3,1
1615919054707115,-2,0,-1,-1,-2,6,6,-5
1615919054707115,-1,0,2,4,5,0,-15,8
1615919054707115,-2,-1,-3,0,4,-11,-5,-4
1615919054707115,1,-2,0,-3,-4,1,-13,0
1615919054721170,-2,-2,-2,0,10,5,34,-1
1615919054721170,1,0,0,-2,-16,-3,-44,-2
1615919054722077,-2,-3,-2,0,-1,-5,-5,0
1615919054722077,0,0,1,-3,3,2,11,6
1615919054744768,0,-3,0,-3,-12,6,-9,-1
1615919054744768,-2,-1,-5,-1,6,6,14,-4
1615919054745741,1,0,-2,0,4,4,3,5
1615919054745741,-3,2,0,-1,-4,-6,12,-8
1615919054766804,-1,0,-1,0,-8,3,2,-2
1615919054766804,-2,0,0,-4,-29,-10,6,-1
1615919054767801,0,0,-1,1,-1,2,-4,6
1615919054767801,-1,-2,-1,-4,-9,-1,-2,2
1615919054781693,-2,-1,-3,3,14,-4,-12,-5
1615919054781693,0,-2,0,2,1,0,25,-5
1615919054781693,-1,-1,-1,-7,-3,0,18,-2
1615919054781693,-1,-1,-5,2,15,7,-29,0
1615919054804473,0,-1,4,-5,-25,-11,0,-2
1615919054804473,-1,-1,-1,1,12,2,0,3
1615919054805709,-2,-1,1,1,6,0,1,-6
1615919054805709,-1,-3,-4,-5,-9,2,-4,-3
1615919054827013,-1,-1,-2,2,12,-4,15,4
1615919054827013,2,-1,-1,0,-18,-5,-17,0
1615919054828012,1,-3,0,0,16,9,8,0
1615919054828012,2,1,3,2,-6,-18,-3,-2
1615919054841717,-1,-1,-2,-4,-18,-2,-2,1
1615919054841717,-2,2,-1,-4,-6,1,4,3
1615919054841717,-3,-2,-5,-3,-3,-7,-19,-4
1615919054841717,-2,1,3,5,-3,2,-11,1
1615919054864734,0,0,0,-3,-3,5,2,-3
1615919054864734,-1,-3,-3,0,8,-6,13,0
1615919054864734,-1,-1,-2,0,20,0,-41,-6
1615919054864734,-1,1,-1,0,6,1,-7,0
1615919054887442,-1,0,-1,-4,-20,-4,10,-6
1615919054887442,-2,-2,-1,2,10,6,-1,-1
1615919054887442,-1,-1,-1,-1,4,9,-2,-1
1615919054887442,1,0,0,0,-1,-8,11,-4
1615919054901009,1,0,-4,-2,17,9,0,8
1615919054901009,-3,-2,4,1,-7,-10,-27,-13
1615919054909212,2,2,-1,0,-14,9,15,7
1615919054909212,-2,-2,-1,-3,-7,-15,0,-4
1615919054924265,-3,-2,0,0,-3,-5,-7,-5
1615919054924265,-1,0,-3,-6,0,1,18,0
1615919054925170,2,0,2,2,6,-2,10,5
1615919054925170,0,-2,-1,-6,-10,11,-4,-3
1615919054946955,1,1,-1,5,21,-7,9,4
1615919054946955,-2,-2,-2,-6,-16,-9,-8,2
1615919054947951,0,0,0,-1,-1,2,15,-3
1615919054947951,-1,1,-1,1,1,4,10,2
1615919054961014,-1,-2,-2,0,-5,1,0,-3
1615919054961014,-1,0,1,-2,3,-1,-14,-4
1615919054968966,-2,-3,-1,0,2,-4,28,1
1615919054968966,-1,0,-2,-1,-2,-1,1,0
1615919054984025,-1,-1,1,0,6,4,1,1
1615919054984025,2,2,-1,4,16,7,21,8
1615919054985031,-1,-2,-4,-4,-29,-9,-4,-1
1615919054985031,-3,-4,0,-7,-16,-4,-26,-11
1615919055006917,-1,-3,-2,3,38,6,1,-4
1615919055006917,0,-1,-3,-5,-43,-19,5,3
1615919055007890,-2,0,0,3,19,6,-15,-2
1615919055007890,-1,-2,-1,-1,13,-17,16,3
1615919055021029,-1,-3,-2,-2,-14,8,-13,-4
1615919055021029,-1,-1,-1,0,13,9,-6,-2
1615919055029001,-1,-1,1,1,-7,-16,-20,1
1615919055029001,0,-2,-1,0,3,9,12,-6
1615919055043988,-1,1,3,-1,-4,-1,-6,-1
1615919055043988,0,0,1,0,-1,4,5,3
1615919055044887,-2,-2,-3,-2,-3,-3,-13,-7
1615919055044887,0,0,-1,1,11,1,2,5
1615919055066033,2,1,-3,-4,-27,-3,-12,-1
1615919055066033,-2,-2,-2,-3,13,1,23,-4
1615919055074070,-2,1,0,-4,-19,-1,29,4
1615919055074070,-1,-1,-3,-1,-2,5,-56,2
1615919055081046,0,0,-1,1,13,-6,-5,0
1615919055081046,0,-2,-2,-1,-4,6,-4,2
1615919055088440,0,1,1,-1,-2,-8,-7,0
1615919055088440,-2,-3,-1,-1,2,4,13,1
1615919055111897,-2,-1,-1,-1,-2,8,-2,-3
1615919055111897,1,-1,-3,-1,-33,-16,4,3
1615919055112898,-1,-2,0,-3,22,10,0,2
1615919055112898,0,1,0,-2,-13,7,7,-1
1615919055127353,-2,0,-1,-1,29,-3,-10,-2
1615919055127353,-2,-1,-3,1,36,-8,7,-1
1615919055127903,-1,0,1,0,4,3,-16,-5
1615919055127903,1,1,0,2,-10,1,5,1
1615919055141059,0,-1,-2,-6,-9,-2,4,-2
1615919055141059,0,2,8,6,-3,10,-11,-4
1615919055149113,-1,-2,-4,-4,-2,-3,3,-2
1615919055149113,0,0,1,4,3,-18,8,5
1615919055163942,-2,-1,-3,-1,-9,7,-8,-13
1615919055163942,-1,-1,-2,-2,8,1,3,1
1615919055164915,-1,-3,-1,-2,-17,-7,-9,-4
1615919055164915,0,0,0,2,6,-3,3,-1
1615919055187409,-1,-2,0,0,7,0,5,6
1615919055187409,-2,-1,-1,-6,-14,-6,-9,-1
1615919055187409,-2,-1,-2,0,8,1,-2,-6
1615919055187409,-3,-2,-2,0,-7,1,3,-1
1615919055200664,-1,0,0,-1,13,-4,-6,0
1615919055200664,0,-2,5,3,17,11,-10,2
1615919055209146,-1,-1,0,1,-3,-6,15,-3
1615919055209146,0,0,-2,-4,-12,-2,2,-3
1615919055224308,-1,-3,-4,3,-4,4,2,2
1615919055224308,-2,2,0,-6,1,3,4,-1
1615919055225206,0,1,2,0,0,-2,-8,1
1615919055225206,0,-1,0,1,-1,-2,0,-3
1615919055246174,0,-1,1,-1,3,-9,9,-4
1615919055246174,0,-2,-6,-1,7,0,-6,-3
