timestamp,emg1,emg2,emg3,emg4,emg5,emg6,emg7,emg8
1615919060759614,8,-2,-4,-3,-2,-4,1,1
1615919060759614,-2,-3,-4,-1,1,-2,-2,-1
1615919060761609,15,-1,1,-5,-20,2,7,3
1615919060761609,-14,-2,-16,2,22,2,-20,-6
1615919060782552,4,0,4,-3,-19,4,-10,2
1615919060782552,26,0,-3,-1,-17,-10,3,2
1615919060784547,-18,-2,2,-5,-9,-4,5,-3
1615919060784547,6,0,-7,1,7,12,2,0
1615919060795648,-11,-2,-1,0,-6,-18,-1,-3
1615919060795648,3,-1,1,-3,12,16,-8,1
1615919060804659,-3,-1,2,1,-1,-9,0,0
1615919060804659,-5,-2,-4,-5,-4,-15,-3,-1
1615919060819643,3,-2,-6,3,6,10,16,0
1615919060819643,-4,0,-5,-4,-1,-1,-4,-3
1615919060821636,-5,-1,6,7,-11,-4,0,-2
1615919060821636,-5,1,2,3,24,2,2,0
1615919060842488,1,-2,-5,-4,-11,-4,-6,3
1615919060842488,4,-2,-9,-7,-2,-12,-6,3
1615919060843627,-25,1,-3,2,19,15,7,-4
1615919060843627,8,-4,-5,-3,-10,-9,-1,1
1615919060856168,10,0,3,0,0,-1,-12,-2
1615919060856168,-21,-3,2,2,-4,9,36,-1
1615919060865148,13,1,-9,-1,2,-5,-28,0
1615919060865148,-4,0,6,1,-11,1,1,1
1615919060879110,-8,-1,-2,1,5,-6,-12,-3
1615919060879110,1,-2,4,-3,-2,-3,1,-3
1615919060881104,2,-1,-7,-3,-9,11,14,-3
1615919060881104,-3,3,-4,-1,-13,-14,-12,2
1615919060903042,5,-1,-4,-4,-10,-2,5,1
1615919060903042,11,0,12,0,0,-2,-11,0
1615919060904004,-12,-5,-10,-3,6,2,2,-3
1615919060904004,17,2,1,-2,-1,5,-3,1
1615919060924991,-2,1,-2,0,4,0,6,-2
1615919060924991,5,-1,-4,-2,6,-4,1,1
1615919060925989,-6,-5,-3,-8,-42,-13,-24,-2
1615919060925989,-1,-2,-4,-1,11,0,5,-1
1615919060939951,2,-3,6,2,-2,7,0,-2
1615919060939951,-8,-3,-2,2,10,-16,-5,-6
1615919060940949,11,0,3,0,5,-3,-12,5
1615919060940949,-8,0,-4,0,0,7,4,-2
1615919060962334,-6,-1,-3,-7,-19,-1,2,-3
1615919060962334,-11,-2,-4,1,14,6,-3,0
1615919060964329,10,7,19,10,3,-2,11,1
1615919060964329,-32,-5,-6,-6,-9,-8,-2,-4
1615919060985006,-1,1,6,1,9,0,-6,-6
1615919060985006,6,1,-1,0,-9,-7,-12,2
1615919060986756,5,-3,-5,-6,-1,8,28,3
1615919060986756,-19,1,-1,2,8,12,10,-1
1615919061000470,-2,-2,-4,-1,-6,-16,-13,-2
1615919061000470,-11,1,4,0,-12,-9,5,-4
1615919061001571,6,1,8,3,13,11,-5,0
1615919061001571,-3,-5,-2,-1,0,2,4,-3
1615919061022400,1,0,-7,2,8,3,2,1
1615919061022400,1,2,-2,-7,5,0,-7,-2
1615919061023403,-3,-1,2,4,3,-4,7,1
1615919061023403,29,-4,-12,-7,-5,1,-5,0
1615919061044822,-18,0,5,-2,-13,6,0,-1
1615919061044822,-3,-3,-3,-1,13,2,10,-2
1615919061045820,-5,-2,-9,-8,-7,4,16,0
1615919061045820,5,4,17,5,6,-6,-38,-4
1615919061058845,13,-2,-2,-2,-1,-4,0,3
1615919061058845,-3,0,-2,-1,-11,9,-1,-5
1615919061065829,0,-4,-9,-4,-5,-4,10,2
1615919061065829,-18,-3,-5,-2,-10,-6,-6,-2
1615919061082407,-10,3,6,-1,12,7,10,-3
1615919061082407,-3,-3,1,-2,-6,-8,-8,0
1615919061083429,2,1,-3,0,9,-7,-9,-6
1615919061083429,4,-1,-2,0,0,5,6,2
1615919061105064,3,-4,-4,-7,-10,-13,-10,-1
1615919061105064,-22,-3,-5,3,11,11,16,-1
1615919061106063,5,0,-4,-3,-4,-10,-17,0
1615919061106063,3,-1,-2,-2,8,0,23,1
1615919061119449,-10,-2,-9,0,11,-2,-15,-1
1615919061119449,15,-1,14,2,-1,1,-2,3
1615919061125775,-4,0,3,-6,-11,0,-3,-3
1615919061125775,-3,-4,-5,1,3,0,10,-3
1615919061142633,5,0,2,2,9,3,12,1
1615919061142633,-5,-4,-9,-2,-17,-8,-13,-2
1615919061143630,2,3,1,2,13,10,5,0
1615919061143630,0,-1,8,-4,-2,-3,-2,-3
1615919061164671,29,0,1,-3,-14,-1,1,2
1615919061164671,-37,-5,-15,3,5,2,-6,-5
1615919061166643,-3,1,20,0,-16,6,0,-2
1615919061166643,-3,1,5,3,-9,-4,-1,1
1615919061179006,9,0,-5,-1,9,-2,-23,-6
1615919061179006,10,0,-3,1,-5,-8,2,4
1615919061186256,-7,-1,-4,-1,8,-6,-4,-2
1615919061186256,-1,0,-5,-2,-8,6,-2,-1
1615919061202880,-5,1,2,3,4,13,16,2
1615919061202880,12,1,4,-2,-14,-1,-5,2
1615919061204905,-27,-3,-3,-2,12,-4,-10,-7
1615919061204905,18,0,0,1,-3,5,14,3
1615919061224893,-7,0,-1,-2,4,-5,-1,0
1615919061224893,5,-1,-9,-3,-1,4,-1,-2
1615919061225965,24,2,14,7,4,-4,0,1
1615919061225965,-9,-3,-4,-3,5,0,4,0
1615919061239419,2,-2,-6,0,-1,8,18,0
1615919061239419,2,0,3,-8,-18,-5,-27,1
1615919061246248,6,-4,-11,-2,6,-13,-2,-3
1615919061246248,6,1,9,4,0,2,-6,1
1615919061262045,-7,-2,-3,-3,-4,-3,5,-4
1615919061262045,3,-4,-4,0,5,6,2,-3
1615919061264016,-10,2,4,-2,-9,-4,5,-4
1615919061264016,5,0,-9,-6,-11,-3,-10,4
1615919061285153,-11,-2,1,2,8,-2,-1,2
1615919061285153,12,-1,3,2,-7,9,7,-2
1615919061286147,-5,-2,-6,-4,-19,-10,-6,-1
1615919061286147,-32,-2,-3,-3,4,-2,-8,-5
1615919061299439,7,-2,2,2,2,10,10,1
1615919061299439,8,2,5,-3,0,-15,4,1
1615919061306280,-1,-2,-4,1,11,9,-6,0
1615919061306280,8,-1,-7,0,4,-1,2,-2
1615919061322240,-12,-6,-7,-3,-2,-3,-12,-7
1615919061322240,-5,3,10,1,1,3,4,-2
1615919061323237,8,-3,-8,-4,-15,-4,11,8
1615919061323237,-6,-2,-6,-4,-1,-4,-5,-9
1615919061360881,1,0,0,3,24,-1,-6,0
1615919061360881,-14,-4,-4,2,-14,2,2,-4
1615919061362851,11,3,4,-6,-18,0,1,-1
1615919061362851,6,-5,-8,1,10,-2,-9,-1
1615919061363848,-37,-1,1,-5,-17,-4,14,-2
1615919061363848,4,-2,-11,-4,8,-11,-25,-3
1615919061366871,6,1,-5,-2,6,9,-2,-1
1615919061366871,-3,-2,-4,0,0,10,15,1
1615919061390077,12,0,5,-1,-15,-24,-11,-1
1615919061390077,-3,-1,2,0,-1,2,7,-1
1615919061391079,-12,-4,-11,-4,4,7,-8,1
1615919061391079,11,0,3,3,9,-9,-12,-3
1615919061404260,0,-2,2,-2,-7,10,-6,0
1615919061404260,1,2,-6,-9,-1,-11,-8,-2
1615919061406203,6,-3,3,10,7,-4,3,-1
1615919061406203,-8,-2,-2,-3,4,15,3,-3
1615919061427147,7,0,1,1,-6,-8,2,-2
1615919061427147,13,-2,1,-6,-9,8,-21,2
1615919061429143,-1,-2,-2,-5,2,-6,1,-5
1615919061429143,-22,-5,0,-1,0,0,4,1
1615919061442591,4,1,-3,0,7,0,-3,-2
1615919061442591,7,-2,-1,1,2,-6,1,3
1615919061443832,-4,0,2,2,9,-3,8,0
1615919061443832,2,1,-5,1,-1,-1,-9,-3
1615919061464852,7,2,-3,-4,-10,-2,-11,-2
1615919061464852,-9,1,2,0,-10,-3,27,4
1615919061465850,-5,-6,-5,2,4,9,-14,-1
1615919061465850,1,0,-3,-5,-4,-11,10,1
1615919061477819,22,1,13,6,14,6,-18,1
1615919061477819,-22,-1,-5,-4,-15,7,2,-1
1615919061487031,1,4,8,8,2,-23,-8,-6
1615919061487031,10,-1,-3,-1,6,10,11,4
1615919061501985,4,-2,-1,-3,-16,-16,-6,-1
1615919061501985,1,1,-3,2,9,12,7,0
1615919061503890,3,-4,-5,-4,-1,6,1,-3
1615919061503890,-2,1,2,-7,-21,-10,-3,-1
1615919061524879,-5,1,-3,4,9,7,2,1
1615919061524879,-6,-4,0,4,26,-1,6,-1
1615919061525851,-2,0,-3,-4,-8,7,9,1
1615919061525851,3,1,0,-3,-7,-12,-12,-4
1615919061538751,6,-2,-3,-3,-4,8,12,-1
1615919061538751,3,-1,0,1,6,-12,-12,-3
1615919061546887,-2,0,-3,-1,11,1,4,6
1615919061546887,0,1,12,1,-1,-4,-17,0
1615919061561900,4,-2,-7,-4,-2,-10,4,-2
1615919061561900,-15,-1,1,6,6,-2,6,-5
1615919061563894,-1,0,2,0,-12,4,-2,-2
1615919061563894,-4,-4,-2,0,-1,-1,4,-2
1615919061585814,-11,-3,-12,-4,-3,2,-7,-1
1615919061585814,5,3,9,-1,-1,-2,-2,0
1615919061586813,-4,0,-3,2,7,-4,6,0
1615919061586813,-2,2,2,-2,-12,9,-2,-1
1615919061598797,7,-2,-4,1,-12,-19,-7,5
1615919061598797,14,-5,-4,1,14,19,26,3
1615919061606981,-44,1,3,-1,-5,-3,-17,-9
1615919061606981,4,0,-5,-4,0,-8,12,1
1615919061621964,0,-2,4,1,5,8,0,-1
1615919061621964,6,1,3,-2,-10,-1,-4,0
1615919061623958,14,-2,8,0,7,-4,10,5
1615919061623958,-11,0,-8,1,-15,-4,-15,-5
1615919061645034,-14,-2,1,-2,-3,14,14,2
1615919061645034,3,-2,-5,-5,0,-10,-14,-4
1615919061645957,7,-5,-21,-3,-1,-13,-5,-1
1615919061645957,3,2,21,4,6,6,4,1
1615919061658124,1,-1,-4,-1,12,1,-4,-2
1615919061658124,-2,-1,4,3,-13,4,7,3
1615919061667102,-1,1,-2,-5,-7,-9,-5,-2
1615919061667102,10,-2,-6,1,1,1,0,-3
1615919061682530,-7,-2,1,1,3,-3,-1,4
1615919061682530,4,1,0,0,3,-1,-7,-3
1615919061683819,-10,-3,0,-6,-17,3,12,-3
1615919061683819,19,-1,-2,1,-6,-8,4,4
1615919061704825,-18,1,0,-2,3,-9,-10,-8
1615919061704825,-8,-2,-9,-1,9,5,-1,0
1615919061705823,17,2,5,-9,-35,-11,-4,4
1615919061705823,-6,-7,0,6,17,1,6,-2
1615919061718806,-4,1,4,-1,-12,3,-18,-5
1615919061718806,8,-3,-6,1,6,-14,2,-1
1615919061732772,-44,-6,-6,-1,-2,9,-4,-5
1615919061732772,-10,-1,-5,-6,-1,5,-6,-4
1615919061741725,1,-1,0,0,13,-9,12,2
1615919061741725,2,1,3,1,-10,6,-2,0
1615919061743720,15,0,6,4,25,15,-4,-1
1615919061743720,-9,-5,0,4,-21,-13,7,2
1615919061764938,1,-2,-1,-5,11,11,4,0
1615919061764938,-1,3,1,1,-9,-3,-8,1
1615919061765908,7,-3,-7,0,-1,-8,2,-2
1615919061765908,-13,3,7,6,22,-8,-18,-6
1615919061777877,12,1,-3,-15,-11,18,29,5
1615919061777877,-6,-6,6,1,-19,-9,-13,-3
1615919061786853,8,3,-4,2,7,6,8,2
1615919061786853,-8,-2,7,1,-3,-5,-6,-3
1615919061801812,10,-3,-9,2,5,-6,-2,-2
1615919061801812,-11,-2,0,-7,3,10,9,3
1615919061803808,2,0,-3,4,16,-5,-11,0
1615919061803808,11,-2,-7,-5,-14,1,-3,-1
1615919061824777,-17,3,3,1,-7,-11,1,-2
1615919061824777,-4,-3,-11,0,12,-4,-11,-4
1615919061825749,20,-3,3,3,6,10,5,4
1615919061825749,-19,1,-7,-9,-6,-13,-30,-2
1615919061838715,2,-4,-1,1,-25,2,2,-4
1615919061838715,-7,3,1,-4,-9,2,15,-5
1615919061847690,16,-1,-3,3,7,-10,-2,8
1615919061847690,-2,-2,-3,-4,6,-1,16,0
1615919061861653,14,4,2,8,11,2,-9,8
1615919061861653,-4,0,1,-5,-4,-9,-7,-6
1615919061863648,-6,-3,1,-2,-2,10,6,-1
1615919061863648,7,1,4,2,0,1,1,4
1615919061884615,-10,-4,-3,-1,2,-7,-11,-6
1615919061884615,6,-2,-11,-3,2,0,25,3
1615919061886610,-8,2,14,-4,-12,-4,-35,-5
1615919061886610,-2,-6,-9,-9,-26,4,1,-2
1615919061907530,2,-2,-5,0,5,5,7,-3
1615919061907530,-6,-2,5,9,18,-16,-7,-1
1615919061914511,14,0,-5,-17,-30,-3,3,-4
1615919061914511,-28,1,-2,-1,11,5,10,-2
1615919061922515,3,0,9,3,-9,-3,-9,6
1615919061922515,-4,-3,-10,-1,-3,5,-3,-1
1615919061923488,4,1,1,2,8,-7,0,0
1615919061923488,17,-2,-5,-3,5,4,8,1
1615919061944433,-14,0,-4,-1,3,-5,-16,-9
1615919061944433,1,-3,4,-3,-2,1,22,5
1615919061945825,-8,-1,-6,3,9,-2,-19,-3
1615919061945825,3,-3,-3,-5,-13,5,6,4
1615919061966798,-6,-3,-5,-3,-6,-3,-4,-4
1615919061966798,3,1,18,6,17,6,-4,-5
1615919061968768,-8,-1,-10,-8,-11,-10,6,-1
1615919061968768,3,0,3,5,8,-6,-4,-2
1615919061981853,4,-2,-7,-2,11,-5,-3,-3
1615919061981853,2,-1,-8,-6,-6,19,6,3
1615919061988703,27,3,12,4,10,-6,-12,3
1615919061988703,-18,2,1,12,12,0,-2,-3
1615919062004834,-5,-1,5,-9,-11,1,2,2
1615919062004834,23,0,-8,-2,0,0,-9,1
1615919062005838,2,-1,-6,0,9,6,11,-1
1615919062005838,15,-2,6,0,-7,10,15,-1
1615919062026781,-9,-2,-7,0,15,-11,-19,0
1615919062026781,-7,1,4,10,1,0,-8,-2
1615919062028776,-16,-4,-7,-13,-5,4,13,2
1615919062028776,6,0,-4,-5,-4,-4,3,-5
1615919062041742,-5,-3,-3,0,-12,-2,2,-5
1615919062041742,-9,-3,-2,0,-5,-2,-15,-5
1615919062048365,-3,-2,2,6,14,0,6,0
1615919062048365,12,-2,-3,-6,-1,4,1,-3
1615919062064825,-31,-2,-1,-4,-19,1,0,-5
1615919062064825,-6,2,-9,-3,-2,-10,0,-1
1615919062065819,-16,-7,1,-2,-7,-7,14,-2
1615919062065819,13,2,-1,-4,-22,-13,-20,3
1615919062086788,7,-1,-6,-6,6,5,3,-1
1615919062086788,2,-1,4,-6,-7,-5,-14,-1
1615919062088755,-22,-1,-6,6,9,3,21,-6
1615919062088755,-1,-2,1,4,7,5,3,0
1615919062101794,12,1,4,0,-2,-8,-10,1
1615919062101794,-9,0,-9,4,0,1,4,-1
1615919062107815,4,1,8,-5,6,7,-14,-3
1615919062107815,4,-3,-3,-1,-12,-4,5,1
1615919062124769,-24,0,4,6,4,-3,-1,-2
1615919062124769,12,-4,-3,-1,-10,2,-3,-2
1615919062125767,3,-4,-2,-4,3,8,2,0
1615919062125767,-4,1,-2,2,13,-3,-2,-2
1615919062146814,12,-2,-3,-11,-8,-1,19,3
1615919062146814,-16,-2,5,13,8,-6,-20,-2
1615919062148809,8,5,1,0,-25,2,-5,0
1615919062148809,-1,-3,-5,-7,-5,-6,-5,2
1615919062161839,10,-2,-4,1,-1,2,23,-2
1615919062161839,-1,-1,-1,-7,3,-6,-12,0
1615919062168819,-4,0,9,4,-7,8,-3,-3
1615919062168819,-6,-2,-7,2,20,-3,-3,0
1615919062184801,4,-2,-6,1,1,4,-4,2
1615919062184801,22,2,10,-5,1,-1,3,5
1615919062186769,-45,-3,-3,1,4,-9,-1,-9
1615919062186769,2,-3,-5,-3,-9,1,-12,0
1615919062207594,6,-3,8,5,12,-4,-5,-4
1615919062207594,-20,-6,-5,-2,-1,13,23,2
1615919062208334,16,2,-5,-7,-5,-12,-28,2
1615919062208334,-5,-1,8,5,14,-2,24,1
1615919062221328,5,0,-10,-8,-15,2,-8,-1
1615919062221328,-6,1,11,2,-12,-1,7,-3
1615919062228284,2,-5,-6,3,3,-6,-2,-2
1615919062228284,-9,-2,-2,-7,6,4,-12,-1
1615919062245791,7,1,-3,0,4,-6,-3,2
1615919062245791,2,1,-1,-7,-11,-1,-1,2
1615919062246791,-13,-4,-4,5,4,-8,2,-1
1615919062246791,8,3,2,-6,-24,4,-23,-1
1615919062266838,-1,-3,3,4,10,1,15,-3
1615919062266838,-4,-2,-9,-4,6,-5,-29,0
1615919062268809,4,2,3,1,12,6,-5,-2
1615919062268809,-6,-6,-5,0,-3,3,11,1
1615919062290521,12,2,2,-2,-10,-2,-6,3
1615919062290521,9,1,-7,-4,4,2,8,0
1615919062291524,-28,-3,2,2,8,8,10,-5
1615919062291524,-5,1,-6,-3,-23,-26,-20,0
1615919062304573,4,-2,-2,4,12,11,20,2
1615919062304573,12,0,4,-16,-6,-2,-2,-1
1615919062306549,-24,-1,-8,1,2,4,1,-4
1615919062306549,-2,-1,5,1,5,5,6,-2
1615919062327492,-5,-2,0,2,-1,-11,-24,-1
1615919062327492,-10,-2,-3,-3,-10,-2,11,1
1615919062328513,15,-1,0,-2,-15,-1,13,1
1615919062328513,1,-1,0,0,24,-4,-31,-3
1615919062340484,-3,-3,-2,-1,-26,3,21,-2
1615919062340484,0,-1,-2,-1,9,-6,-21,-4
1615919062350429,13,-1,-2,-1,-17,-1,1,4
1615919062350429,1,1,-2,-4,-7,5,8,-3
1615919062364391,-5,0,-3,-8,7,-10,-7,-3
1615919062364391,-1,0,-3,2,15,7,4,-2
1615919062366386,-10,-1,-5,0,0,-12,-14,1
1615919062366386,2,2,2,2,10,0,16,2
1615919062394835,-19,0,3,-3,-14,-1,-13,1
1615919062394835,-6,-8,-4,-4,-13,-3,13,-1
1615919062395833,24,2,4,0,4,2,-4,2
1615919062395833,-2,-1,-1,3,10,3,0,-3
1615919062400835,2,0,4,0,-1,-5,-1,-1
1615919062400835,0,0,-12,0,3,2,-13,0
1615919062409840,-3,-4,7,6,7,-2,-8,-3
1615919062409840,-10,1,0,-5,-8,15,16,-4
1615919062431807,7,-4,-10,-5,-4,2,24,3
1615919062431807,-5,5,11,6,2,-22,-18,-2
1615919062433774,16,0,-3,-3,-1,5,3,3
1615919062433774,-3,1,-1,-2,-6,-7,-9,0
1615919062447621,-14,0,1,-1,11,11,-1,-5
1615919062447621,-1,-6,-3,-2,-1,7,10,3
1615919062448335,6,-1,-1,-4,-14,3,-4,0
1615919062448335,-4,-2,2,0,-2,-18,0,0
1615919062460882,11,2,-2,0,4,6,-9,-1
1615919062460882,4,1,3,4,0,0,9,1
1615919062469564,-4,1,-2,0,-4,-1,-13,-3
1615919062469564,5,-4,-8,-3,8,2,33,5
1615919062484940,-2,1,10,-1,-14,-7,-44,-4
1615919062484940,-4,-3,-1,-4,6,4,-2,-5
1615919062486865,4,3,0,0,17,-4,11,3
1615919062486865,2,-1,1,4,-17,1,-9,-1
1615919062507671,-4,-3,-6,-2,17,-1,1,-2
1615919062507671,13,-2,-6,-4,-18,1,1,3
1615919062508671,-49,-8,-7,-5,0,7,-3,-8
1615919062508671,8,1,6,4,11,-7,-2,0
1615919062530054,1,-5,-5,-8,-46,-11,-3,1
1615919062530054,3,2,1,2,3,-8,2,0
1615919062530965,14,1,0,-1,-5,11,-1,1
1615919062530965,-15,-4,-3,-3,-1,-2,9,-4
1615919062544848,4,3,-4,4,13,13,-32,1
1615919062544848,-3,-1,6,2,-1,0,7,-4
1615919062545822,5,-1,-2,-8,-17,-9,3,2
1615919062545822,0,-1,-3,3,8,-1,-5,-2
1615919062566833,3,0,0,1,1,5,7,-1
1615919062566833,-6,0,7,4,4,-6,-1,-2
1615919062568811,6,-4,-5,-7,-11,-2,-1,0
1615919062568811,0,0,4,-1,-10,-6,-6,0
1615919062580777,0,0,-4,0,16,-6,6,-3
1615919062580777,-22,-3,-7,-5,1,-1,-10,-1
1615919062597769,8,0,1,-4,-23,3,20,-1
1615919062597769,3,-1,-6,-3,-4,-2,-15,-2
1615919062604736,-3,0,6,-3,-8,-6,13,-3
1615919062604736,0,0,-3,5,27,4,-13,0
1615919062606733,13,2,-1,-5,-21,-17,-13,3
1615919062606733,-20,-4,-2,0,6,11,1,-2
1615919062627652,6,-3,-3,1,9,0,19,4
1615919062627652,0,-5,-3,-8,-16,0,-2,-4
1615919062628648,5,2,-2,5,18,2,3,2
1615919062628648,-1,-1,0,-3,-21,-2,-14,-2
1615919062641246,-1,0,-4,-5,-5,-14,-3,-2
1615919062641246,-1,2,2,-4,6,8,8,-2
1615919062649276,-5,-2,5,10,3,-4,-3,0
1615919062649276,3,3,8,-2,7,6,18,2
1615919062664377,-3,-3,2,2,-2,-4,-33,0
1615919062664377,14,-1,-9,-2,-3,1,9,-1
1615919062666357,-34,-2,-3,-2,10,0,4,-2
1615919062666357,8,2,5,2,-7,-4,-6,3
1615919062687296,2,0,-8,0,10,10,14,-3
1615919062687296,-9,0,3,0,-7,-4,-1,1
1615919062688294,7,-1,-7,4,19,14,-4,-1
1615919062688294,3,-2,3,-3,-19,-33,14,2
1615919062701305,-12,3,7,0,3,1,-18,-4
1615919062701305,3,-3,4,-1,7,5,10,2
1615919062709858,5,2,-4,0,-15,2,1,0
1615919062709858,-3,-4,-10,-4,12,6,-7,-4
1615919062724819,7,-3,0,1,-3,1,12,5
1615919062724819,14,-1,-5,-6,-22,-8,-6,-2
1615919062726815,-23,-5,-1,-9,-15,-8,-6,-1
1615919062726815,6,4,3,2,6,15,6,0
1615919062746762,-7,-3,1,-3,-1,-11,-6,-4
1615919062746762,2,0,-6,1,7,1,-4,0
1615919062748754,6,-2,4,6,20,-4,7,0
1615919062748754,-2,-4,-4,-3,-3,1,-7,-3
1615919062760723,-9,-2,-6,-1,-9,6,8,-4
1615919062760723,4,3,-2,0,-2,-7,-3,1
1615919062769698,-12,-2,-1,-5,10,-3,-2,-4
1615919062769698,-4,-2,-5,-3,-13,4,-3,2
1615919062784661,4,1,5,5,13,-5,12,0
1615919062784661,14,-2,3,-4,-43,-5,-24,0
1615919062786765,-20,0,2,1,5,-3,-6,-5
1615919062786765,6,-1,-9,-4,6,0,8,-7
1615919062807627,-5,1,-2,-2,-9,9,-23,4
1615919062807627,-8,-2,1,3,3,0,8,-2
1615919062808628,18,-2,-2,-1,-1,-2,0,3
1615919062808628,3,-1,2,-1,2,4,1,5
1615919062829597,-3,-7,-3,1,-5,-3,5,-5
1615919062829597,-13,1,-2,0,15,-4,1,-3
1615919062831566,8,-5,-5,-4,-18,0,-12,-2
1615919062831566,-5,0,0,4,15,1,5,-2
1615919062844883,6,0,-5,-6,-6,1,5,4
1615919062844883,-5,-3,3,-2,-6,-4,-1,-2
1615919062846065,2,-4,-4,3,7,0,-1,-1
1615919062846065,11,2,-3,-3,-22,-5,-7,-3
1615919062866907,-4,2,2,2,16,1,3,-2
1615919062866907,-29,-2,-4,-1,3,3,1,-3
1615919062868878,13,0,-2,0,6,-6,16,2
1615919062868878,-4,-6,-4,-4,-2,1,-42,-3
1615919062890183,2,1,1,-2,-3,-4,10,1
1615919062890183,0,0,1,-3,-3,-3,-10,-4
1615919062891800,7,-1,1,0,5,-9,-6,3
1615919062891800,-8,-2,-3,-1,-2,6,9,1
1615919062905201,3,1,1,-9,-24,-5,-7,-5
1615919062905201,-1,-2,-6,1,7,3,-3,-1
1615919062906201,6,5,8,-2,-9,-6,1,4
1615919062906201,-13,-9,-5,-3,10,4,-3,-3
1615919062926941,4,3,7,3,-6,-1,2,1
1615919062926941,0,2,-1,4,14,1,10,0
1615919062928934,0,-4,-8,-4,2,0,-3,-2
1615919062928934,3,3,10,0,5,3,-1,4
1615919062950095,-3,-3,-1,0,2,1,0,-3
1615919062950095,-3,-6,-5,-2,-1,-6,4,1
1615919062951809,8,7,7,7,2,7,1,3
1615919062951809,-23,-5,-9,-5,-2,-9,-2,-6
1615919062972659,0,0,10,1,-16,5,3,2
1615919062972659,10,0,-3,-4,-6,-3,-9,-2
1615919062973792,-11,-3,-6,1,18,9,21,-5
1615919062973792,16,1,-1,-7,-37,-20,-8,3
1615919062986825,0,-4,-6,2,13,2,-2,0
1615919062986825,-10,-3,-4,-2,-2,-10,-9,0
1615919062988796,8,0,-3,-2,-7,0,-1,0
1615919062988796,4,2,0,-3,-13,10,4,3
1615919063017412,-13,-4,-4,2,9,-9,4,-8
1615919063017412,3,-2,-1,-2,4,4,-3,0
1615919063018391,-3,-3,-4,2,4,-7,-9,-6
1615919063018391,5,2,2,-1,-1,-3,0,1
1615919063024405,21,-4,-4,1,11,12,0,3
1615919063024405,-14,0,1,2,-9,-14,9,-4
1615919063030360,-2,0,-1,-5,-7,-2,-7,-2
1615919063030360,-4,2,-5,0,3,-3,-1,0
1615919063046966,15,-1,-4,-5,-8,-3,-3,-2
1615919063046966,-6,-3,-5,0,9,14,8,4
1615919063049004,1,3,10,1,-6,-10,-12,-3
1615919063049004,8,-1,2,-3,16,5,4,0
1615919063077375,-10,0,2,-1,-20,2,7,-2
1615919063077375,2,-2,-9,-3,-8,-19,-12,-1
1615919063078373,-10,-2,5,-5,-8,-1,-23,-1
1615919063078373,-6,-2,-7,2,12,16,9,-2
1615919063084360,-5,-1,3,-2,-1,-13,-8,-1
1615919063084360,1,0,9,3,-4,5,11,-1
1615919063091389,4,2,-3,-8,-8,1,5,1
1615919063091389,-30,-6,0,0,13,-7,-9,-5
1615919063107746,0,-3,-11,-5,-10,-8,-2,-3
1615919063107746,7,5,4,-2,-1,13,-5,-1
1615919063108745,7,1,1,-1,-12,-20,-4,0
1615919063108745,-11,-2,3,4,5,4,1,0
1615919063129904,-12,-2,-4,-5,-8,-8,16,-2
1615919063129904,1,0,-5,1,-6,10,0,-1
1615919063130899,8,-5,-9,-4,3,12,3,6
1615919063130899,4,0,5,2,-1,-13,-5,-1
1615919063145045,-2,-3,3,5,13,9,2,2
1615919063145045,2,-1,-4,-4,8,3,11,1
1615919063151351,-9,-1,5,3,-5,1,-9,-4
1615919063151351,10,1,-10,-5,-13,-8,7,-1
1615919063167513,5,-1,2,1,13,8,-5,1
1615919063167513,-36,-4,-1,-5,-6,-10,-14,-8
1615919063168486,-2,0,-4,-1,3,5,3,0
1615919063168486,9,2,3,6,14,-4,-9,-1
1615919063190190,-8,-2,-6,-4,0,0,8,-3
1615919063190190,13,4,3,-7,-10,-7,0,3
1615919063191792,-1,0,0,2,3,3,7,1
1615919063191792,-6,-4,-8,-3,-4,9,-13,-3
1615919063203944,6,2,2,2,14,-1,7,2
1615919063203944,-16,-3,-7,3,6,2,3,-4
1615919063210877,-3,0,-4,-6,-6,5,1,1
1615919063210877,9,2,2,1,-10,-6,5,0
1615919063226809,-4,3,-1,0,11,-2,-14,-2
1615919063226809,6,-2,-3,-4,-25,-5,-2,-1
1615919063228803,-2,-2,4,1,7,-1,-3,-1
1615919063228803,-12,-1,-2,-2,4,-2,26,-8
1615919063250175,1,-1,-7,-4,2,-6,-53,6
1615919063250175,9,2,8,6,8,-3,0,-3
1615919063251800,4,-3,-8,2,6,12,2,4
1615919063251800,0,1,2,-3,-4,-18,7,1
1615919063263917,-2,2,2,4,6,-7,-4,-1
1615919063263917,11,-1,-3,0,8,12,6,-1
1615919063271339,-5,-4,-3,-3,-15,-6,-15,-1
1615919063271339,6,-6,-4,-6,-3,6,10,3
1615919063287711,-2,7,17,7,1,-4,-2,2
1615919063287711,-3,-5,-7,1,10,9,-5,1
1615919063288711,-1,-3,-3,-3,-9,-6,12,-7
1615919063288711,-15,2,-3,0,-3,5,-13,-2
1615919063309841,-4,-6,-12,-4,1,-4,13,-2
1615919063309841,6,3,7,-1,-16,-1,-15,4
1615919063310838,-10,-2,5,-3,6,-9,-1,-7
1615919063310838,11,-1,-5,2,5,3,6,2
1615919063322826,-34,0,6,-1,-8,8,7,-7
1615919063322826,6,-3,0,4,5,-14,-14,-1
1615919063332779,1,-3,-9,-5,-4,6,-1,0
1615919063332779,1,1,5,1,1,-2,-21,-2
1615919063346814,8,0,1,-2,-14,1,33,1
1615919063346814,-6,-4,-1,2,14,-9,0,-4
1615919063348808,5,1,-3,-1,6,4,-3,0
1615919063348808,11,0,-8,3,-3,4,9,3
1615919063369833,-22,-2,9,1,3,-5,11,-2
1615919063369833,13,-1,-2,-3,-7,3,-13,0
1615919063371807,-39,-4,-7,-2,-5,-11,-3,-2
1615919063371807,6,1,3,1,18,8,6,1
1615919063383795,13,-2,-6,-6,-10,-6,-15,-3
1615919063383795,4,0,0,0,10,0,13,2
1615919063399594,-3,0,4,2,4,3,7,-4
1615919063399594,-1,-1,0,3,8,2,-5,-1
1615919063406977,-4,-4,-8,0,-7,1,-6,0
1615919063406977,0,-2,-4,-3,-5,-5,-3,-2
1615919063408971,10,2,-3,0,7,-3,-2,-5
1615919063408971,0,0,13,-3,-18,0,6,7
1615919063437694,5,-5,-12,-3,3,-4,-9,-5
1615919063437694,-5,-1,-8,-3,-4,-1,14,4
1615919063438694,4,-4,13,7,10,0,9,-1
1615919063438694,-6,-4,-11,-2,-7,-5,-26,-6
1615919063443680,9,1,-2,-3,-6,5,-1,3
1615919063443680,-21,-1,1,-5,-9,1,4,-5
1615919063452865,5,0,-5,-2,4,10,0,5
1615919063452865,-7,-2,4,0,16,-12,3,-3
1615919063467745,5,1,-5,-2,-8,-2,-5,1
1615919063467745,8,-2,2,3,5,1,-4,0
1615919063468744,5,1,-4,1,2,0,13,-2
1615919063468744,-4,0,3,-2,0,11,-13,-1
1615919063490072,6,-5,0,-1,-8,-2,2,2
1615919063490072,-3,6,0,1,-7,-3,15,-2
1615919063491077,1,-1,1,-1,0,-8,-33,-1
1615919063491077,5,0,-7,-2,-8,-3,5,-2
1615919063503157,-4,-1,4,9,12,9,-18,-3
1615919063503157,2,-3,0,-6,-32,-11,1,2
1615919063512840,19,1,8,2,-1,0,4,-1
1615919063512840,-26,-1,-6,-4,-4,-6,-7,-5
1615919063526830,1,2,5,-3,1,9,11,-2
1615919063526830,5,-7,-4,0,5,2,-3,9
1615919063528798,6,-2,-10,-10,-26,-5,-3,-1
1615919063528798,10,-2,5,1,-7,-12,-4,-3
1615919063550039,-7,-2,-3,-1,1,-15,4,-1
1615919063550039,6,0,-9,2,25,12,17,2
1615919063551025,-11,-1,13,-1,-4,-2,-11,-4
1615919063551025,8,-1,-3,-2,-8,4,5,2
1615919063563029,-6,0,-5,1,13,6,2,0
1615919063563029,0,0,-6,-3,3,-6,-10,-3
1615919063572792,-5,-2,-2,-5,-14,0,6,3
1615919063572792,-2,1,2,2,3,6,-4,-4
1615919063587597,6,-1,8,3,1,-3,-1,0
1615919063587597,-6,-1,-1,-2,-3,12,-2,-2
1615919063588605,17,2,3,5,5,-18,6,-4
1615919063588605,-38,-4,0,-5,1,5,-6,3
1615919063609835,1,-2,-11,-7,-14,-7,-9,-4
1615919063609835,-5,-2,-1,2,0,-1,7,-2
1615919063611831,1,0,-7,-4,4,2,-2,2
1615919063611831,17,-4,-2,3,-4,4,11,-1
1615919063623799,5,0,-5,-3,14,-5,-3,2
1615919063623799,-24,5,10,0,-12,4,-10,-5
1615919063632798,-3,0,-8,-1,18,-4,9,-2
1615919063632798,5,-3,-8,-7,-26,-9,-3,0
1615919063647739,0,-1,-2,-1,0,0,3,2
1615919063647739,6,-2,1,0,6,-16,-9,-5
1615919063648729,-3,1,-4,2,-1,9,18,3
1615919063648729,2,-2,-2,3,11,-15,-28,-5
1615919063669782,9,1,1,-4,-20,-2,8,-3
1615919063669782,-1,-4,-7,-6,-1,0,11,0
1615919063671776,-4,0,12,5,-17,0,-36,-5
1615919063671776,0,0,-8,-4,1,-10,13,1
1615919063683779,11,4,2,3,9,4,-8,3
1615919063683779,-4,-2,-2,0,5,6,0,-2
1615919063691972,-3,-3,-13,-8,-9,-9,5,-2
1615919063691972,-13,-2,3,4,8,6,2,0
1615919063707172,-3,-2,1,-1,7,-3,-5,-2
1615919063707172,0,1,5,-4,1,-6,-8,-4
1615919063708933,-7,-4,-5,0,2,11,1,1
1615919063708933,8,3,3,0,-7,-8,5,1
1615919063729902,-6,-6,-9,2,10,3,20,1
1615919063729902,-4,-1,2,-3,-8,1,-19,-1
1615919063730894,2,-1,4,-2,-1,3,17,2
1615919063730894,3,1,2,-1,5,1,-9,-1
1615919063752675,-8,-3,-6,-6,-37,-8,-4,-4
1615919063752675,-4,3,-1,-3,8,3,-2,6
1615919063753804,-5,-1,-1,2,8,-5,8,-2
1615919063753804,3,0,3,0,0,8,6,-4
1615919063766898,-1,-2,-4,-6,-17,-6,-18,-3
1615919063766898,4,-2,1,1,0,-3,9,4
1615919063768892,4,2,2,-3,-4,2,-5,4
1615919063768892,-19,0,-5,-3,4,2,1,-3
1615919063789556,6,0,8,2,2,-6,-8,-4
1615919063789556,2,-1,0,2,6,4,11,-2
1615919063791555,-9,-3,-9,-3,6,-2,-28,-2
1615919063791555,10,-3,-1,1,-3,4,-2,-1
1615919063812435,0,0,5,-1,-1,6,6,3
1615919063812435,-3,-3,-8,1,0,-6,0,-5
1615919063813460,-3,-3,0,-1,2,6,4,-1
1615919063813460,4,2,0,-2,-10,-7,11,1
1615919063827416,-6,-4,-4,-1,14,1,-26,-4
1615919063827416,1,0,0,-3,1,3,8,-2
1615919063828414,4,-3,-11,1,-3,-18,-15,-2
1615919063828414,5,5,12,1,10,11,2,-1
1615919063849849,-2,-4,-2,1,-4,-6,20,3
1615919063849849,6,2,1,3,19,-1,-8,-2
1615919063851819,-2,-2,-6,-8,-19,11,4,0
1615919063851819,-2,-3,-4,-1,-11,-18,12,0
1615919063871784,-4,-1,-8,-2,10,5,-12,-3
1615919063871784,-2,1,-6,-5,-12,-1,0,-1
1615919063873784,-8,-2,2,2,28,3,-1,0
1615919063873784,15,-3,-1,-1,-10,-1,3,-1
1615919063887080,0,1,3,1,17,9,-1,0
1615919063887080,2,-4,-6,1,-15,-7,-6,-3
1615919063892834,-3,3,5,2,-4,-1,7,-1
1615919063892834,2,-6,-14,-4,5,-2,-10,-2
1615919063909921,1,4,8,1,-2,3,16,0
1615919063909921,-14,-1,13,3,-1,-4,-28,-4
1615919063910919,7,-2,-5,-7,-7,4,15,7
1615919063910919,-4,-1,0,1,4,0,-6,0
1615919063931978,6,-2,-6,-9,-22,-1,2,-2
1615919063931978,0,-2,-3,0,-5,-3,6,0
1615919063933975,-2,-1,-2,2,2,-9,-33,-5
1615919063933975,-1,4,7,1,11,0,-7,-1
1615919063947074,-7,-6,-5,-5,-16,-3,7,0
1615919063947074,32,1,8,-1,-1,6,6,2
1615919063953549,-36,-4,-8,-1,-12,0,4,-1
1615919063953549,2,-5,-4,-6,-17,-1,-4,-3
1615919063970225,-6,0,1,3,10,-1,-22,-6
1615919063970225,-1,-3,-7,-3,3,-1,20,1
1615919063971096,8,1,10,0,-3,2,10,2
1615919063971096,-10,-3,-4,-7,-34,-13,-7,-5
1615919063992692,-2,2,-7,2,8,2,2,0
1615919063992692,-4,-2,-5,-3,-4,1,-8,1
1615919063993834,6,3,6,1,-10,-8,15,-3
1615919063993834,-2,-6,2,0,8,4,2,2
1615919064006947,-3,-2,-5,-6,-13,-7,-8,-3
1615919064006947,-3,-1,-6,-1,-9,3,1,-2
1615919064012938,1,1,-1,1,24,-2,2,-2
1615919064012938,25,-1,-6,-6,-17,2,-5,1
1615919064029918,-17,0,7,5,12,4,18,0
1615919064029918,-3,1,-2,1,1,-14,-12,-2
1615919064030891,1,-2,2,0,13,9,3,1
1615919064030891,-2,0,-3,3,11,6,-3,0
1615919064051834,3,-1,-1,-1,-7,1,-6,2
1615919064051834,-8,-1,-6,-3,-4,-7,2,-6
1615919064059894,6,0,10,-4,-11,-3,-12,-2
1615919064059894,-4,0,-1,5,18,3,20,2
1615919064066900,-2,-2,-2,-4,-2,-4,-1,-2
1615919064066900,-3,-3,10,6,0,-1,-13,1
1615919064073918,1,-1,-8,-3,-1,-4,4,-5
1615919064073918,-5,3,11,3,4,13,1,6
1615919064090862,-3,-2,-1,-4,-12,-22,0,-3
1615919064090862,2,0,0,-1,5,11,6,-2
1615919064091861,3,-1,-3,0,-19,-9,-12,-3
1615919064091861,-6,3,-3,-4,-18,15,13,3
1615919064111893,1,-2,-2,-4,-4,-13,-14,-2
1615919064111893,-5,0,0,2,1,-7,1,1
1615919064113858,-1,-3,-7,-5,-5,4,0,-1
1615919064113858,-1,-1,-3,2,11,-5,-1,3
1615919064126822,7,-2,-7,-2,6,9,0,-4
1615919064126822,1,0,4,2,-12,-7,10,4
1615919064133802,0,0,2,-1,6,-1,-2,-5
1615919064133802,1,-4,-2,-6,-15,-9,-12,-5
1615919064149927,4,2,6,-4,-7,4,8,1
1615919064149927,-4,-7,-10,-2,9,0,-16,-2
1615919064151072,-2,0,-3,1,-15,1,7,-2
1615919064151072,6,0,0,-4,-19,-19,-12,-4
1615919064172637,-4,1,1,5,7,2,-16,2
1615919064172637,4,-1,0,-3,4,14,17,2
1615919064173796,-8,-5,-2,-4,0,-8,16,3
1615919064173796,-13,-3,-3,1,10,10,-26,-12
1615919064187076,-3,2,3,1,-3,-14,1,1
1615919064187076,-3,1,-5,-4,1,-2,-2,3
1615919064193300,4,-5,-9,-2,16,8,-2,1
1615919064193300,-18,4,9,4,-20,-8,4,-2
1615919064210111,-3,-6,-12,-3,-2,9,8,0
1615919064210111,8,6,17,3,-6,-5,-9,-1
1615919064211109,-2,-4,-6,-2,2,-7,-3,0
1615919064211109,-19,-3,-3,-4,-18,0,1,-4
1615919064232455,6,0,0,4,15,6,-6,0
1615919064232455,-5,-4,-9,-6,-4,-4,18,2
1615919064233459,0,1,3,2,0,4,-12,-5
1615919064233459,11,-3,2,4,18,-7,0,5
1615919064245810,-11,-1,-2,-3,-9,2,13,-1
1615919064245810,-5,-4,-4,-2,4,4,-33,-6
1615919064255364,3,1,-2,-4,-20,-8,9,0
1615919064255364,3,-2,-6,-4,15,-3,-4,0
1615919064269985,0,1,6,1,3,0,3,-2
1615919064269985,7,0,-2,1,-2,7,4,-3
1615919064271085,-29,-2,0,-4,3,-11,-10,0
1615919064271085,4,2,-4,5,17,3,0,-2
1615919064292076,4,-4,6,-4,-17,11,-3,-1
1615919064292076,-6,-2,-7,-5,-12,-17,7,-2
1615919064294055,11,5,5,3,10,6,-2,2
1615919064294055,2,-2,-8,-5,-14,-2,13,5
1615919064306369,-6,-1,-3,2,9,-3,-23,-2
1615919064306369,-1,0,2,0,4,2,-3,-2
1615919064315371,12,2,3,4,10,6,15,-1
1615919064315371,-21,1,10,-1,6,-5,-37,-6
1615919064337647,9,-3,-4,-4,-3,1,8,1
1615919064337647,-11,-3,-5,-3,-6,-10,-2,-6
1615919064338650,3,0,-3,0,15,6,1,0
1615919064338650,18,1,-8,1,9,1,6,4
1615919064351782,-34,-2,1,2,1,-1,-3,-5
1615919064351782,-2,-2,-5,-4,-5,-3,-6,-7
1615919064353778,5,1,13,-2,-25,-12,-7,7
1615919064353778,4,-5,-13,-3,10,9,11,0
1615919064374789,8,2,0,-1,1,13,11,3
1615919064374789,1,1,2,0,-12,-16,0,3
1615919064376784,-8,-2,-4,-9,-35,-4,-13,-3
1615919064376784,0,-2,-2,-1,1,-1,15,-3
1615919064390242,4,3,12,1,-3,-7,-37,-1
1615919064390242,-6,-2,2,5,23,14,7,2
1615919064391241,11,0,-3,1,-2,1,1,0
1615919064391241,-28,-4,0,-4,-3,-10,8,-4
1615919064411940,16,1,-3,1,2,-3,13,-3
1615919064411940,-16,-1,0,-4,-12,3,-10,6
1615919064413908,-8,-5,-3,-2,3,-1,1,-2
1615919064413908,11,0,-3,3,18,17,0,-1
1615919064425984,-6,0,-3,-3,-4,-16,13,2
1615919064425984,9,3,8,6,-1,-3,-6,0
1615919064435356,-5,-8,-10,-13,-29,-5,1,-4
1615919064435356,0,3,3,3,3,5,-7,2
1615919064449828,6,-3,-15,-7,-2,-3,8,-1
1615919064449828,7,-1,1,5,9,1,-6,1
1615919064451799,-5,2,3,3,10,4,-5,-4
1615919064451799,6,-1,-1,-2,-8,-6,1,-1
1615919064480169,-5,-2,-3,-1,-2,5,4,-5
1615919064480169,2,-4,-7,-6,2,4,18,5
1615919064481136,-7,-1,6,6,-4,-10,-21,-6
1615919064481136,15,-1,-5,-8,-23,-2,0,2
1615919064486123,-47,-3,4,3,5,2,-1,-6
1615919064486123,6,3,-3,-2,6,2,0,1
1615919064494797,5,-3,-11,-5,13,6,-2,-1
1615919064494797,0,2,21,7,-8,-10,-5,0
1615919064510252,12,-1,-11,-4,2,0,-7,0
1615919064510252,-6,-3,0,-3,-6,-3,3,-3
1615919064511250,-3,-2,-9,-3,-2,-4,5,-1
1615919064511250,1,0,2,2,20,10,22,2
1615919064532203,5,-1,5,2,1,-15,-33,-1
1615919064532203,-3,-1,-5,-5,-21,4,9,0
1615919064534186,6,-2,-1,1,13,-5,-5,0
1615919064534186,-4,-4,-6,-2,-2,1,1,-4
1615919064546156,-12,0,3,5,11,5,8,1
1615919064546156,3,-3,-6,-9,-32,-1,-8,-6
1615919064555328,10,2,4,2,-7,0,4,0
1615919064555328,-7,-3,-7,-6,-1,-3,-14,2
1615919064569287,0,-3,-5,-3,-14,-5,4,-5
1615919064569287,0,-2,-2,-6,10,-6,-12,-6
1615919064571282,2,-1,7,8,19,10,20,5
1615919064571282,4,-1,-11,-2,-13,-10,-26,-5
1615919064592354,10,3,6,1,-7,-5,-1,6
1615919064592354,-4,-3,-2,3,14,11,4,-1
1615919064594353,0,0,-6,-1,9,-4,-5,-2
1615919064594353,-5,3,3,3,10,-3,5,-5
1615919064614375,11,-3,-5,-1,1,12,3,5
1615919064614375,-3,0,1,-3,-7,-23,-6,-3
1615919064616376,-8,-4,-9,-3,-18,15,5,3
1615919064616376,-2,0,9,1,10,-8,0,-4
1615919064629331,5,0,1,-1,-12,15,4,0
1615919064629331,5,-1,3,-2,9,-4,2,-1
1615919064631305,-3,-2,-6,-1,12,-2,0,-3
1615919064631305,-5,-3,1,-5,-21,-12,-8,1
1615919064652567,7,4,10,-2,-7,-1,12,1
1615919064652567,3,-3,-5,4,9,7,-5,0
1615919064653804,-2,-1,-2,1,3,9,15,-2
1615919064653804,5,-5,-8,-12,-18,-22,-19,-2
1615919064665823,-4,-3,-4,3,17,-2,-11,0
1615919064665823,1,1,-5,-2,-7,-4,1,-4
1615919064674798,-6,-3,-5,0,13,5,-16,1
1615919064674798,-11,-3,4,-10,-28,-1,18,-3
1615919064690152,13,0,-7,1,10,14,13,0
1615919064690152,-11,-2,-1,0,-2,-14,-14,-2
1615919064691805,6,1,0,-2,-16,-1,-3,-2
1615919064691805,-2,-1,0,8,36,12,7,-2
1615919064711855,-4,1,-4,-3,-26,-13,-8,-1
1615919064711855,-1,3,6,-2,3,10,7,0
1615919064713847,-6,-1,10,5,2,-7,-5,-6
1615919064713847,5,-1,-14,6,20,5,-9,3
1615919064734790,0,-5,3,-8,-28,-5,34,4
1615919064734790,0,4,5,1,-20,4,-21,0
1615919064736909,1,-3,-5,-7,2,-10,-4,0
1615919064736909,-5,2,4,0,-2,13,17,-4
1615919064750129,6,-4,0,9,25,-6,-21,-5
1615919064750129,-3,-2,-4,-1,18,-5,17,-1
1615919064752131,-7,1,9,-3,-28,-7,-8,-6
1615919064752131,9,-2,-8,0,13,0,0,5
1615919064772523,-6,0,-3,-3,9,1,-2,-3
1615919064772523,0,-5,3,1,-3,-4,-4,0
1615919064773519,5,-2,-4,-4,-8,3,-9,0
1615919064773519,-23,-5,-3,-7,-11,6,7,-3
1615919064794603,18,-1,-4,-3,9,1,-5,-1
1615919064794603,-38,1,8,3,-7,-14,2,-1
1615919064796095,-4,1,0,0,-8,-5,-3,-1
1615919064796095,5,1,2,0,-3,-2,-4,-1
1615919064808616,-4,-2,2,-6,-6,2,-20,-3
1615919064808616,15,-1,-6,1,13,10,18,4
1615919064817594,-4,1,-6,-4,8,-7,9,0
1615919064817594,1,2,1,2,1,1,8,2
1615919064832361,-9,-3,3,-2,-22,-7,-14,-5
1615919064832361,5,-5,-8,-1,9,12,-4,-8
1615919064834361,-3,0,-1,3,6,-7,-4,2
1615919064834361,8,-2,-3,-3,-4,-8,-6,2
1615919064854306,-2,1,-1,4,16,8,23,2
1615919064854306,-4,-3,-3,-4,-6,-2,-4,-3
1615919064855987,-39,-6,-5,-2,-5,8,-3,-5
1615919064855987,10,3,0,1,8,-1,10,0
1615919064868982,-4,-5,-5,-5,-7,-12,-29,-3
1615919064868982,5,2,9,3,4,10,10,3
1615919064876003,12,-3,-2,1,20,6,1,1
1615919064876003,-3,-4,-2,-3,-7,-8,4,-1
1615919064892645,-11,-3,-5,1,6,-1,5,-1
1615919064892645,11,0,-6,0,1,-1,-5,0
1615919064893795,6,0,5,1,0,-9,-5,0
1615919064893795,-4,-1,2,-1,-6,8,-5,-1
1615919064914814,6,1,2,-3,3,4,4,0
1615919064914814,1,-1,-5,-2,-3,-2,0,1
1615919064916833,2,0,-2,-1,-4,-15,4,0
1615919064916833,-11,-4,-1,-5,-19,-2,-18,-3
1615919064928753,4,-1,-1,3,5,6,40,1
1615919064928753,-9,-3,-7,-1,5,-1,-40,-4
1615919064936435,11,2,10,0,-3,-6,0,-4
1615919064936435,5,-1,-5,-1,-8,3,-5,2
1615919064952747,-3,1,-2,2,-1,-3,-1,0
1615919064952747,3,-2,-1,-2,0,2,13,-1
1615919064954741,8,-1,0,0,-24,2,-3,3
1615919064954741,-7,-3,-7,-1,12,1,-13,-5
1615919064974901,1,-4,0,-4,-8,-11,-5,-1
1615919064974901,4,2,0,1,-4,-1,3,0
1615919064976785,-1,-4,-8,-2,6,-5,-11,0
1615919064976785,0,0,11,2,5,4,15,3
1615919064989670,-7,-1,-4,-7,-21,1,-6,-2
1615919064989670,0,-1,-5,0,1,-2,2,-2
1615919064995675,-5,2,9,1,5,11,11,-2
1615919064995675,16,-2,5,-3,-36,-15,-31,-1
1615919065019925,-44,-4,-2,1,12,1,-3,-4
1615919065019925,7,-1,1,-2,-10,0,5,6
1615919065020898,4,-2,-11,4,18,8,0,0
1615919065020898,7,0,-3,-5,-3,-4,10,2
1615919065034884,-14,0,-6,3,15,0,-8,-3
1615919065034884,-1,-2,5,-4,-18,-6,2,-3
1615919065035882,-6,1,0,1,13,4,1,-2
1615919065035882,-4,-1,-1,7,14,10,15,-1
1615919065048811,8,-2,-8,-6,-10,-19,-17,-2
1615919065048811,-10,0,3,1,8,6,13,-1
1615919065055920,14,2,11,5,-3,-3,3,3
1615919065055920,-4,-4,-4,-5,14,1,-5,-4
1615919065072431,8,-2,-5,0,2,4,18,-2
1615919065072431,-3,-3,0,-1,-16,-2,-16,-3
1615919065073430,20,0,9,3,5,5,0,4
1615919065073430,-15,2,0,5,19,-2,4,-1
1615919065094586,5,0,-2,-9,-30,-9,6,-1
1615919065094586,-1,-5,-6,-6,6,8,-19,-1
1615919065096563,-1,1,2,2,-2,-4,2,-4
1615919065096563,0,-1,-3,3,5,6,-4,-2
1615919065109600,9,0,8,0,5,4,0,3
1615919065109600,15,0,-5,-3,-2,0,1,3
1615919065115601,-22,-4,-5,-10,-25,-6,-3,-2
1615919065115601,0,-1,0,0,-3,-5,-2,-6
1615919065132536,3,-2,-2,-5,-17,0,-26,-1
1615919065132536,0,-2,-2,-1,-2,-1,5,-1
1615919065133536,-2,-1,-11,0,18,1,2,-4
1615919065133536,0,-3,-1,-1,-10,-3,-6,3
1615919065154383,0,3,2,-1,-2,2,6,-2
1615919065154383,-10,-5,-2,1,5,-19,7,-5
1615919065156278,2,-1,-2,-4,-7,5,-9,3
1615919065156278,-9,-2,-8,-2,1,0,5,-5
1615919065169521,10,1,8,7,3,-2,-9,2
1615919065169521,-6,0,-3,-1,-1,4,22,-1
1615919065175580,-6,-3,-3,-6,-11,-3,-4,-2
1615919065175580,7,2,6,4,6,-2,-2,1
1615919065192596,1,-2,-1,-6,-18,-2,7,-1
1615919065192596,-5,-1,0,0,-2,-1,-22,-4
1615919065193602,3,-3,-6,-1,7,-1,3,1
1615919065193602,-6,2,6,-2,-11,0,2,-7
1615919065214913,14,-4,-1,1,8,6,4,8
1615919065214913,-6,1,-6,-3,2,-7,0,-1
1615919065215910,15,1,5,-1,-12,-3,-2,-1
1615919065215910,-38,-1,-4,-3,1,1,-15,-1
1615919065228576,0,3,-2,5,8,-2,4,-4
1615919065228576,8,-4,-8,-7,-13,1,5,4
1615919065237366,-9,0,-6,-3,6,4,-3,-4
1615919065237366,8,-1,11,6,3,-10,-7,-1
1615919065252644,-3,-3,-7,-4,6,1,-3,4
1615919065252644,-13,-2,-2,1,17,6,1,-3
1615919065253792,-1,3,-2,-3,-3,-5,8,1
1615919065253792,3,-1,-4,2,11,1,22,2
1615919065275000,-1,0,1,1,7,8,-11,-3
1615919065275000,10,-2,1,1,3,-3,-17,0
1615919065275899,-11,-3,-7,-4,-7,3,22,-1
1615919065275899,3,-1,2,-2,2,-6,-5,-5
1615919065288907,2,0,1,1,-8,-4,3,7
1615919065288907,2,1,1,-1,-7,0,3,-2
1615919065297130,-2,-2,1,-1,-2,-6,-6,-1
1615919065297130,2,-2,-12,-8,-3,11,2,1
1615919065311922,13,1,8,9,14,-2,3,1
1615919065311922,-10,1,1,-1,-1,3,-6,0
1615919065313892,-8,-3,1,-2,-11,-6,-8,-4
1615919065313892,5,-1,-3,-3,7,-5,23,3
1615919065341828,-3,-3,-2,0,17,-6,-27,-6
1615919065341828,8,4,1,2,0,8,6,1
1615919065348784,6,3,-3,0,-7,-10,-14,0
1615919065348784,-15,1,3,0,-8,10,6,1
1615919065349777,-8,-2,-8,0,9,3,5,-6
1615919065349777,-4,2,3,2,3,-5,8,3
1615919065357756,-1,-1,1,-3,-8,-6,-29,-7
1615919065357756,10,-2,-6,-6,-18,4,15,5
1615919065380196,-11,-2,6,3,-2,-6,1,-5
1615919065380196,-4,-1,-2,-3,-12,8,-1,-5
1615919065381197,14,-2,-4,-3,-1,-7,4,3
1615919065381197,-37,-3,2,4,-8,-4,-8,-6
1615919065394440,-1,-3,-8,-8,-3,-7,0,-4
1615919065394440,9,-1,6,6,3,-3,14,2
1615919065396052,-3,-1,-8,-4,1,8,-9,2
1615919065396052,8,-2,-1,-6,-26,-8,-16,1
1615919065417382,-5,-2,-6,-6,7,10,9,-3
1615919065417382,-1,0,3,3,12,-11,-2,-3
1615919065419350,-19,-4,-4,4,5,-4,6,-4
1615919065419350,8,-2,-5,-5,-11,-7,-14,-4
1615919065432316,-1,-2,7,1,-5,5,1,1
1615919065432316,7,0,-10,-7,-4,-2,1,0
1615919065434338,-5,1,18,3,4,-8,5,3
1615919065434338,5,1,3,2,6,9,-9,-4
1615919065455254,-6,-1,-2,-4,-4,-5,-2,-2
1615919065455254,2,-7,-7,-7,-9,-2,0,1
1615919065456252,-4,-1,4,6,2,4,16,1
1615919065456252,10,-1,-6,-5,2,-3,-20,-2
1615919065468246,-30,2,12,4,-1,0,-28,-3
1615919065468246,-1,1,-2,-1,-5,6,1,-1
1615919065477422,2,-4,-11,-2,8,-10,4,-1
1615919065477422,6,-1,2,1,2,0,2,1
1615919065492644,6,-2,-9,-3,-19,2,10,-3
1615919065492644,-3,1,9,3,5,3,-11,-2
1615919065493641,-2,0,1,-2,5,1,3,4
1615919065493641,-2,-3,-3,1,13,-6,1,-9
1615919065515092,9,-2,-9,-5,-4,-3,5,10
1615919065515092,4,-1,12,3,6,-9,-9,-1
1615919065516094,-14,-3,-5,-5,-4,18,10,-3
1615919065516094,-1,0,0,2,15,-15,-3,3
1615919065528869,2,-1,-5,-5,2,8,8,-1
1615919065528869,-3,0,1,9,10,-2,-12,-2
1615919065544799,28,-1,-3,-3,-14,-2,12,3
1615919065544799,-14,-2,-1,-2,-12,1,-3,-1
1615919065551825,2,4,-1,-3,-2,-10,11,-2
1615919065551825,0,0,5,-1,-6,-4,-20,-3
1615919065553825,2,1,-1,0,2,6,7,-4
1615919065553825,2,1,2,4,-2,5,8,0
1615919065574797,3,-1,-2,-1,7,-7,-5,0
1615919065574797,-6,-3,-7,-4,-13,4,7,-1
1615919065576763,-3,-1,-1,2,11,-6,-9,1
1615919065576763,3,0,-3,-3,-13,-3,8,3
1615919065588730,-2,-1,-3,5,11,9,-4,-1
1615919065588730,-3,2,5,-3,-3,-7,2,-2
1615919065597708,-5,-5,-7,-6,-1,0,-7,-2
1615919065597708,0,1,5,7,4,7,5,3
1615919065613779,2,-4,-3,-7,-18,-9,-1,-5
1615919065613779,-1,-1,-12,-1,7,9,12,2
1615919065618764,-2,1,-3,-1,-7,-10,-2,-2
1615919065618764,11,0,5,-2,1,-12,-2,-1
1615919065634710,-7,-2,3,3,1,1,-5,1
1615919065634710,7,-3,-5,-2,-4,2,7,1
1615919065636685,-5,-2,2,-5,-7,1,-9,-2
1615919065636685,2,2,-2,1,5,-2,0,-2
1615919065657672,6,0,-1,0,-2,1,-3,2
1615919065657672,-4,2,4,-3,-2,-9,-12,-4
1615919065658676,-5,-1,1,2,6,9,15,2
1615919065658676,-3,-3,-5,-3,-1,-12,-9,0
1615919065672661,-6,-3,-10,-9,-21,-4,2,-5
1615919065672661,-6,0,-7,0,16,1,0,2
1615919065673634,-7,0,10,7,-2,1,-11,-2
1615919065673634,16,-1,-3,-4,-6,11,16,2
1615919065694604,-35,-1,-3,6,13,-1,6,-3
1615919065694604,17,0,-2,-5,-23,-16,-8,1
1615919065696598,-11,-3,-8,-4,7,6,0,1
1615919065696598,-5,-1,3,-1,-9,11,-1,-3
1615919065717655,11,-2,-2,-2,2,-10,-3,1
1615919065717655,-1,0,12,5,-7,7,6,-3
1615919065723650,-3,-2,-7,-4,-17,-10,-8,-3
1615919065723650,2,0,-4,1,12,-5,-2,0
1615919065732589,2,0,6,-1,3,10,-1,-2
1615919065732589,-7,-4,-5,-5,-10,-13,11,-2
1615919065733586,6,-2,-8,-4,-8,8,-27,-1
1615919065733586,-14,-4,-10,3,3,-7,-4,-4
1615919065755301,9,0,3,-4,-8,4,0,1
1615919065755301,13,-3,-8,-4,10,3,3,1
1615919065756301,-20,-4,4,2,9,-1,0,-7
1615919065756301,6,1,-2,-6,-10,-9,-4,5
1615919065776890,0,2,5,2,-4,3,4,-1
1615919065776890,2,-1,-3,2,3,-2,7,-2
1615919065778885,0,-2,-6,-6,-13,-3,-1,0
1615919065778885,-4,-1,-3,-3,1,5,-10,-5
1615919065800198,3,1,4,3,1,-9,14,-1
1615919065800198,-13,2,7,-6,-9,-10,-16,-3
1615919065801211,7,-1,0,1,5,-2,3,-2
1615919065801211,-10,-4,-1,-3,-17,-8,-7,-3
1615919065815273,4,-1,1,1,4,3,7,-2
1615919065815273,-10,-4,-12,-2,-8,-1,-23,-4
1615919065816270,13,3,7,-4,-6,-1,1,3
1615919065816270,4,0,3,0,9,8,5,0
1615919065837211,2,-2,-6,-1,1,-9,-7,1
1615919065837211,-26,-2,-4,-1,9,2,1,-2
1615919065839206,2,1,6,4,2,-6,-2,-3
1615919065839206,6,1,4,0,11,16,13,-1
1615919065852052,-3,-1,0,-5,-8,-14,-14,1
1615919065852052,3,-2,-5,0,-2,6,5,1
1615919065858865,2,3,-2,-2,-4,-5,8,0
1615919065858865,-4,-4,-9,-3,3,7,1,-4
1615919065874857,6,4,20,5,13,-5,-8,2
1615919065874857,7,1,-4,0,-6,5,3,2
1615919065876858,-3,-2,-4,-3,-13,-5,17,-3
1615919065876858,5,-2,-1,0,7,4,-34,-1
1615919065897804,-3,-3,-7,-2,-8,-3,1,-2
1615919065897804,-3,0,-1,2,18,-7,-9,-4
1615919065898802,20,0,1,-1,-17,-2,17,3
1615919065898802,-4,-3,-7,-3,0,1,10,2
1615919065911884,-7,-1,-3,-3,-6,2,-11,-4
1615919065911884,1,0,-6,-2,12,6,-5,-1
1615919065918889,3,-3,3,0,-1,-5,0,-4
1615919065918889,6,4,5,0,-3,-4,1,0
1615919065934820,-4,-6,-11,-4,2,8,-3,-2
1615919065934820,4,4,11,2,-1,2,11,2
1615919065936814,-1,-1,-2,1,2,-6,-4,0
1615919065936814,-19,-5,-4,-6,-16,-6,-25,-7
1615919065957383,3,2,4,1,-6,-4,1,0
1615919065957383,0,-3,0,2,10,9,1,-1
1615919065960374,-2,2,1,-2,4,3,-3,-1
1615919065960374,1,-3,-6,-3,-16,-17,5,3
1615919065971343,-23,1,3,-5,6,10,4,-7
1615919065971343,8,1,6,9,0,1,-9,1
1615919065978324,-3,-3,-9,-1,11,5,5,4
1615919065978324,0,0,2,0,-9,-8,4,-4
1615919066002318,12,0,-1,0,9,7,-6,-1
1615919066002318,-6,-2,-9,0,-8,1,18,1
1615919066004315,-9,1,1,-1,9,-5,-15,-6
1615919066004315,2,-2,3,1,0,6,-5,4
1615919066017277,15,1,-2,-2,-1,-10,12,4
1615919066017277,-7,-1,-1,-4,-9,5,-6,-3
1615919066019272,11,1,-3,1,8,1,7,-3
1615919066019272,-9,-2,-5,-3,12,2,-34,-5
1615919066031240,9,-1,7,3,-14,-9,0,4
1615919066031240,-40,-2,-3,-1,5,0,22,-6
1615919066038349,4,-1,-8,-4,9,5,-11,2
1615919066038349,3,1,18,2,-18,2,14,0
1615919066055339,-14,-5,-11,-2,2,1,-3,-7
1615919066055339,29,1,-1,-4,-7,-11,-7,4
1615919066056339,-13,-4,0,-3,-5,7,-4,-2
1615919066056339,-2,2,-3,1,19,14,10,-1
1615919066077690,1,-1,-9,-2,-9,-11,-3,1
1615919066077690,4,0,6,-2,5,-5,8,-2
1615919066078690,-4,-5,-4,-3,-12,4,10,0
1615919066078690,5,1,2,4,20,-10,-26,4
1615919066091447,1,-2,1,0,-11,1,1,0
1615919066091447,-3,-3,-6,-6,-10,0,-6,-4
1615919066100397,-5,0,-5,1,-4,-3,-1,-1
1615919066100397,-3,-3,-3,-2,-8,2,12,-4
1615919066114775,33,2,-2,-1,-8,-2,-2,3
1615919066114775,-31,-3,-3,-7,3,-9,-11,-6
1615919066116770,2,-2,10,7,1,-4,-6,-1
1615919066116770,-3,-2,-11,-5,-6,-2,18,-1
1615919066137810,6,0,-1,0,4,-1,-3,1
1615919066137810,14,-4,-1,-3,-13,-3,-2,1
1615919066138808,-4,-1,-1,-1,0,-3,-8,0
1615919066138808,-8,-2,-5,-3,3,6,23,-2
1615919066151348,-11,1,6,3,17,2,-11,-4
1615919066151348,2,-2,-1,-3,-19,1,1,0
1615919066159834,-1,-2,-4,0,0,4,-3,3
1615919066159834,6,0,0,-2,-2,-12,-11,-1
1615919066175790,-11,-2,-7,-3,-2,4,20,-3
1615919066175790,-4,-4,-3,-3,10,-2,-12,0
1615919066176790,13,0,-5,0,2,-7,3,0
1615919066176790,-34,1,18,3,-2,7,2,-4
1615919066197745,-3,-3,-1,-2,2,4,6,0
1615919066197745,23,3,-5,-2,-1,-4,-4,-3
1615919066198745,-15,-5,-1,0,-2,-3,-12,-1
1615919066198745,16,3,-4,2,3,-3,12,3
1615919066211424,-8,-1,0,-4,1,0,1,-2
1615919066211424,1,-5,-1,1,4,-1,-4,-1
1615919066220401,-4,-1,5,-1,1,-2,-2,-1
1615919066220401,3,-1,-6,-4,-26,-8,-4,-1
1615919066234641,-2,-2,-4,-2,-2,-9,-10,-3
1615919066234641,4,-1,2,6,7,14,-3,2
1615919066236063,-1,7,6,-3,-2,1,-5,1
1615919066236063,2,-1,-6,-1,14,4,14,-1
1615919066257802,-13,-6,-7,2,-4,10,18,-3
1615919066257802,-16,-2,-8,-3,4,-22,-25,-2
1615919066259799,2,4,16,1,-1,-1,11,0
1615919066259799,0,-2,-3,-3,7,-5,-10,-4
1615919066280028,3,0,-4,-3,-2,3,7,2
1615919066280028,3,3,3,2,4,7,7,-2
1615919066280927,2,-3,-5,2,6,-5,-17,-4
1615919066280927,1,-4,-6,-5,-11,-7,13,4
1615919066294473,-2,0,12,4,8,6,-3,-3
1615919066294473,2,-2,-6,-6,-12,2,0,-1
1615919066296467,-4,0,8,5,5,0,14,2
1615919066296467,11,-1,-2,-2,-7,-13,-33,1
1615919066317511,-7,-1,-6,-1,-4,-10,-14,-3
1615919066317511,3,2,9,5,8,4,7,-2
1615919066318491,-22,-5,-8,-9,-22,2,3,-5
1615919066318491,12,1,-3,1,-3,6,6,3
1615919066331449,-3,-1,0,0,-4,-5,-6,-1
1615919066331449,-6,-1,-10,-4,15,-3,3,1
1615919066355548,8,-2,7,6,-7,6,0,-1
1615919066355548,-6,-1,6,-2,-7,-2,-2,-4
1615919066356439,-3,0,-2,-1,8,-9,-7,-1
1615919066356439,14,0,0,6,-1,6,12,5
1615919066358457,-17,-2,-14,-6,4,-4,-5,-8
1615919066358457,-4,-1,7,1,5,6,6,3
1615919066385376,1,-2,1,-3,-15,-5,-3,-1
1615919066385376,-4,-1,3,-2,-5,5,1,1
1615919066387017,3,-1,-2,-2,2,-3,-2,-4
1615919066387017,-6,-1,-11,-3,-20,3,11,-3
1615919066391489,12,-1,0,2,13,-2,-8,2
1615919066391489,-3,0,-1,-6,-21,3,9,-3
1615919066399642,7,-1,-4,1,15,7,-2,3
1615919066399642,0,0,-7,-5,0,-11,0,-3
1615919066421879,10,-1,6,6,8,5,-1,3
1615919066421879,-7,-2,3,0,-1,-8,-6,-9
1615919066423851,8,-2,-9,-5,-4,-3,9,7
1615919066423851,11,3,9,4,-4,4,-6,-1
1615919066436900,-36,-5,-4,0,0,6,-1,-6
1615919066436900,0,0,6,-1,-7,-5,-3,-1
1615919066438898,1,0,-6,-3,1,0,-5,-1
1615919066438898,-2,-1,0,-2,-11,-5,-2,0
1615919066451462,-1,-3,-9,-4,-5,5,-1,-2
1615919066451462,1,-1,3,1,-1,-5,10,5
1615919066460916,19,-1,-1,-2,-4,-5,-27,-4
1615919066460916,-9,-3,7,1,7,4,1,0
1615919066474990,6,3,-7,3,9,-1,5,2
1615919066474990,-1,-4,-13,-3,1,5,18,-1
1615919066476887,6,-2,1,0,4,-15,-12,0
1615919066476887,-1,-2,1,1,7,0,-2,-1
1615919066497810,-1,-1,0,-4,-19,-7,-13,0
1615919066497810,2,0,-4,0,5,8,1,1
1615919066498783,-8,-1,-2,-2,-1,-9,9,0
1615919066498783,6,-3,-3,-1,11,7,-7,-4
1615919066510891,-7,-1,4,-6,-5,-3,6,-2
1615919066510891,-2,-1,-1,2,-2,2,-11,-1
1615919066527846,-4,3,-3,-1,-16,-9,14,-4
1615919066527846,25,-4,-7,-6,1,3,-21,-1
1615919066535355,-28,4,6,6,18,-4,0,-4
1615919066535355,5,-6,-6,-4,-25,2,-2,7
1615919066536976,-9,-1,6,0,12,3,-5,-3
1615919066536976,-2,-4,-5,3,-3,1,30,1
1615919066557770,9,0,-4,-7,-15,3,-13,3
1615919066557770,-9,-1,3,-5,-4,-12,-16,-6
1615919066559768,-9,-1,-4,2,-3,1,8,-1
1615919066559768,1,2,0,-2,8,-2,-5,2
1615919066571508,1,-4,-1,1,6,1,2,-4
1615919066571508,2,0,-2,-6,-7,-8,1,1
1615919066579625,7,-2,-3,-6,-17,6,-3,-2
1615919066579625,-11,-2,-4,0,1,-12,-3,-5
1615919066595352,4,-1,0,1,13,1,0,0
1615919066595352,7,1,-2,-7,-25,2,-13,-3
1615919066596351,-6,0,1,0,5,5,4,0
1615919066596351,16,-1,0,-4,-12,0,0,0
1615919066617414,-10,-2,-8,-5,-7,1,4,-3
1615919066617414,-8,-4,6,5,11,-5,-1,-1
1615919066623402,5,0,0,-1,-3,3,1,2
1615919066623402,-4,2,-1,1,4,-10,-8,-3
1615919066640331,11,-2,-5,-6,-20,3,0,2
1615919066640331,-11,-2,-1,-1,24,2,3,-2
1615919066641330,3,-3,-2,2,-10,-1,-9,-1
1615919066641330,-7,1,-3,4,8,4,3,2
1615919066655314,5,-3,0,-3,-2,-3,10,0
1615919066655314,-5,5,2,0,-6,5,-5,-1
1615919066657311,0,-4,-9,0,16,7,14,0
1615919066657311,-12,-2,1,-3,-6,-8,-4,-4
1615919066677282,13,3,1,0,-22,-6,-2,3
1615919066677282,-26,-4,-7,-3,-12,0,4,0
1615919066679253,3,1,5,3,5,11,15,0
1615919066679253,-10,-3,0,-2,-5,-16,-16,-6
1615919066700367,1,-3,-6,-2,7,0,3,1
1615919066700367,17,2,8,2,8,-2,5,3
1615919066701978,-10,-5,-8,-4,-2,4,-7,-3
1615919066701978,-14,1,7,0,-4,-4,4,-1
1615919066714902,10,0,-10,-2,8,4,-11,1
1615919066714902,-6,-1,-2,2,-9,-10,5,-1
1615919066716897,2,-5,-6,-6,-5,-4,-10,-3
1615919066716897,2,2,-1,4,16,6,0,0
1615919066737803,-3,-1,-1,-4,-12,-1,-3,-2
1615919066737803,1,-3,-1,1,5,3,8,-4
1615919066739477,-1,0,5,-2,2,-8,-20,3
1615919066739477,1,2,3,-1,-4,-5,-3,0
1615919066759915,-5,1,3,1,4,0,-4,-6
1615919066759915,-2,-3,-5,0,10,7,17,-1
1615919066761933,1,0,3,-2,-2,-9,-25,-2
1615919066761933,20,-6,-8,-3,-6,0,11,6
1615919066774023,-14,-1,1,3,7,-1,-4,0
1615919066774023,11,0,-9,-4,-9,0,-2,-2
1615919066780920,-10,-1,5,1,5,-7,2,-4
1615919066780920,8,2,-3,1,-2,16,-2,1
1615919066796824,-1,-2,0,-6,-9,-23,0,-4
1615919066796824,-1,-1,-7,-4,16,4,-9,-2
1615919066798822,7,5,4,3,-1,8,17,-1
1615919066798822,-13,-3,-10,0,6,-5,-12,0
1615919066836514,-2,-4,6,-3,-4,-2,4,1
1615919066836514,-3,0,-3,5,6,-2,-8,-2
1615919066837513,0,4,14,1,-8,-1,3,1
1615919066837513,-6,-1,8,-1,4,3,1,-4
1615919066838511,-2,-3,-20,-1,4,5,5,0
1615919066838511,8,-2,9,-2,-4,-8,-5,-2
1615919066842515,-4,-1,-13,-2,4,1,2,-2
1615919066842515,-6,-2,-5,-3,-5,0,5,-2
1615919066857751,5,2,6,-1,-1,1,-12,-2
1615919066857751,-2,-1,9,2,-10,0,-1,1
1615919066858760,-2,-1,0,0,-2,-2,9,-1
1615919066858760,-7,-1,-5,-2,5,-6,-5,-2
1615919066879701,-1,-1,4,8,2,1,3,0
1615919066879701,0,-3,-3,-5,0,-1,2,2
1615919066881074,-8,-4,-6,-8,-10,-8,7,-4
1615919066881074,3,0,0,-1,-4,-8,-2,1
1615919066894034,-1,-3,3,3,17,8,-2,-3
1615919066894034,-1,-2,-1,-6,-25,-14,-7,-2
1615919066901443,1,2,-2,0,-2,-6,-2,0
1615919066901443,-4,-2,2,1,-3,1,3,-3
1615919066917222,-3,-4,-2,-1,5,-2,-3,-1
1615919066917222,-1,2,-7,-7,-3,1,-5,-2
1615919066919217,0,0,15,11,4,2,-1,3
1615919066919217,-3,-1,2,0,2,-2,-1,-3
1615919066940375,1,0,1,0,-4,0,-4,0
1615919066940375,3,2,-5,3,2,-4,10,1
1615919066941374,-4,-4,-11,-6,-2,-4,-21,-5
1615919066941374,-5,-1,0,-4,5,14,4,-3
