timestamp,emg1,emg2,emg3,emg4,emg5,emg6,emg7,emg8
1615919026205470,8,-1,-1,2,3,0,9,4
1615919026205470,-8,-2,0,-2,11,-1,-5,-2
1615919026205470,5,-7,-4,0,-43,-5,0,1
1615919026205470,8,5,3,1,10,8,-5,-3
1615919026227410,-5,-2,-4,1,5,-2,5,2
1615919026227410,-11,-4,2,1,9,-1,4,-2
1615919026228408,5,2,-1,-1,-12,-9,-10,1
1615919026228408,10,-2,-3,-5,-7,5,5,0
1615919026250621,-2,-2,2,2,-10,-5,-7,-2
1615919026250621,4,-1,-4,-2,5,2,-1,-2
1615919026251572,-11,-2,2,0,-2,-7,13,-1
1615919026251572,3,0,-4,0,18,7,-10,-2
1615919026265682,4,0,2,2,2,-3,-1,0
1615919026265682,2,0,1,-6,-33,-7,7,-1
1615919026266662,-5,0,-1,-1,2,-6,6,0
1615919026266662,1,-4,-2,-1,9,4,5,-1
1615919026287604,-11,0,-4,-1,-2,-1,-13,-1
1615919026287604,1,-1,0,0,-1,9,6,0
1615919026288601,-1,-2,1,1,7,-9,-16,-2
1615919026288601,-8,1,-2,-4,-12,-4,2,0
1615919026310880,3,-2,0,-3,-12,7,-8,-2
1615919026310880,2,-4,-3,-3,-12,-15,-9,-2
1615919026311855,-7,0,4,0,32,9,2,-1
1615919026311855,1,-1,-2,-4,-5,-14,5,-1
1615919026324846,1,-3,-7,-2,-16,4,-22,-5
1615919026324846,0,3,0,2,15,5,16,11
1615919026325817,1,-2,-5,0,-11,0,-11,-5
1615919026325817,0,-1,2,3,18,3,5,3
1615919026356245,4,0,-2,-4,-5,-6,10,0
1615919026356245,0,0,-4,-2,-1,0,-4,1
1615919026356913,-7,-1,-1,2,14,4,1,0
1615919026356913,14,2,-1,-3,-52,-6,-7,-5
1615919026370902,9,-1,0,-6,20,2,4,6
1615919026370902,-35,-4,0,3,0,12,8,-4
1615919026371874,6,4,7,1,-1,-12,4,1
1615919026371874,-2,-1,-5,-3,-20,3,-2,-2
1615919026392863,-1,-1,0,-1,10,-1,-3,0
1615919026392863,9,0,-1,-5,-8,-1,24,-2
1615919026393864,-15,-4,2,6,9,7,-22,-8
1615919026393864,-2,0,2,3,9,-7,2,3
1615919026408106,3,-1,-2,-5,-13,3,3,-2
1615919026408106,1,2,3,1,9,0,-5,-1
1615919026408106,2,-3,-6,-3,-14,-3,11,-2
1615919026408106,1,-2,0,0,-5,-3,-9,1
1615919026431321,-8,-5,-7,-3,-7,2,10,-5
1615919026431321,11,6,1,-5,-12,-2,-8,2
1615919026431321,4,0,0,2,17,3,-20,-5
1615919026431321,-15,-6,-1,2,-4,-5,-1,-1
1615919026444544,0,2,0,-1,-11,-3,2,0
1615919026444544,15,2,-3,2,10,-7,-8,0
1615919026452494,-13,-1,0,-2,-6,0,7,4
1615919026452494,2,-2,-2,-2,15,0,17,1
1615919026467877,-4,1,10,2,-15,-10,4,2
1615919026467877,-2,-5,0,-1,17,2,-37,-8
1615919026467877,13,1,-7,-4,6,5,14,1
1615919026467877,-14,0,4,4,-20,0,-7,-5
1615919026490932,-3,-1,2,-1,7,-25,-4,-6
1615919026490932,1,-2,-3,1,-6,-2,3,7
1615919026491933,2,-1,-2,0,1,2,1,-3
1615919026491933,0,0,-1,-5,7,11,1,1
1615919026504565,3,1,-1,1,-6,7,-5,-3
1615919026504565,6,-2,0,-3,-2,-7,-1,-2
1615919026512818,-20,-5,-3,-1,-6,-4,-2,-1
1615919026512818,6,0,1,-3,12,-5,-4,-1
1615919026527781,3,-1,-3,-3,-8,9,2,-1
1615919026527781,-4,-1,-4,-1,4,-3,-3,-4
1615919026528777,2,-3,-3,-1,-11,-3,25,5
1615919026528777,5,2,5,4,17,0,-39,-1
1615919026550830,-7,-3,-5,-1,18,7,1,0
1615919026550830,4,-3,2,0,-9,-10,0,0
1615919026551831,4,1,0,2,-12,0,4,0
1615919026551831,0,-1,0,-5,24,6,-1,1
1615919026572906,-2,-2,-4,2,-3,-13,-7,0
1615919026572906,-8,-4,-10,-3,2,2,2,-3
1615919026573820,9,5,13,0,4,1,-7,0
1615919026573820,-1,-3,-4,-3,14,-5,13,-1
1615919026588019,0,0,-4,2,1,7,1,1
1615919026588019,-6,-4,-2,-7,-23,-3,0,-5
1615919026588592,0,1,-5,-5,-9,-1,-4,0
1615919026588592,-20,-2,-1,-1,-22,-16,-6,-4
1615919026611314,6,-3,3,4,2,9,4,1
1615919026611314,0,0,-3,3,16,-1,-4,-3
1615919026611314,-1,-4,2,-3,-5,-8,-2,1
1615919026611314,4,2,0,-2,-64,-3,21,4
1615919026624945,-1,-3,-4,-1,13,9,-27,-5
1615919026624945,-3,1,2,1,3,1,1,0
1615919026632899,-1,-1,-4,-2,4,1,-4,-3
1615919026632899,0,-5,2,3,12,1,3,0
1615919026648067,-5,0,2,-2,-3,-12,8,1
1615919026648067,20,3,0,-7,-7,11,-7,0
1615919026648804,3,-1,-3,0,16,-5,-6,-1
1615919026648804,0,-1,-6,-9,-29,-1,2,-4
1615919026670801,-16,-3,1,0,6,8,6,-1
1615919026670801,-2,-1,3,4,18,-3,8,8
1615919026671799,1,0,-2,-2,-25,-3,-8,-7
1615919026671799,-2,0,-8,0,24,-9,-8,-2
1615919026684763,7,0,5,0,-5,3,9,2
1615919026684763,-5,-4,4,5,20,3,14,3
1615919026692912,-4,-2,0,-1,-12,-13,-7,-1
1615919026692912,8,-3,-3,1,15,14,0,0
1615919026708048,-1,3,-6,-9,-18,-18,-4,-4
1615919026708048,-4,-1,-2,0,-8,-2,4,-1
1615919026708805,-5,2,-2,-2,4,2,-3,0
1615919026708805,0,0,4,2,10,5,-3,1
1615919026731004,-5,-2,-1,1,17,0,6,2
1615919026731004,-2,3,5,-3,-34,1,-9,-2
1615919026731902,-3,-2,-4,-3,5,2,4,-2
1615919026731902,5,-2,-8,-2,-6,1,-5,-1
1615919026753011,3,2,-3,-2,8,-2,3,2
1615919026753011,-1,-2,-2,-2,4,-4,-12,-5
1615919026753918,-12,0,2,1,-6,12,1,0
1615919026753918,0,-1,-1,-3,-2,-5,13,0
1615919026767928,2,-1,-3,-3,-13,-6,-9,0
1615919026767928,-3,-2,0,2,0,-7,-1,-4
1615919026767928,-2,-2,-1,1,37,4,-7,1
1615919026767928,-3,2,5,1,18,15,5,-2
1615919026790907,2,-1,-3,-3,-11,0,11,6
1615919026790907,-1,-1,-4,1,0,0,-14,-2
1615919026791909,1,-2,-2,1,1,5,23,2
1615919026791909,-4,-1,-4,-3,-5,-10,-23,-3
1615919026813129,2,-3,8,3,-5,4,4,0
1615919026813129,-3,-1,-3,-3,10,-5,10,-2
1615919026814100,1,-1,-4,1,-6,7,4,3
1615919026814100,11,1,-1,0,-7,-2,0,0
1615919026828096,3,-4,-4,-6,0,-1,-7,-7
1615919026828096,-1,0,-2,0,0,3,-2,-1
1615919026828096,0,1,0,-1,-4,-5,-7,1
1615919026828096,0,-1,-2,-4,-15,-14,-3,-4
1615919026850496,5,1,-3,3,11,6,-2,0
1615919026850496,-2,-4,-3,-5,-2,-4,14,-1
1615919026851417,0,-2,-7,0,-8,13,-8,-1
1615919026851417,-2,0,8,-3,-1,-10,6,1
1615919026872928,-9,-3,-1,2,18,-1,-5,1
1615919026872928,1,1,-4,-1,-5,6,5,-5
1615919026873844,3,5,2,-4,-2,-8,12,7
1615919026873844,-4,-1,-2,4,47,4,-10,-2
1615919026888020,-3,0,0,0,-13,-9,-4,-4
1615919026888020,-9,-6,1,1,3,-3,-10,-1
1615919026888253,17,-1,-2,-6,-7,5,4,0
1615919026888253,-35,-5,1,1,-5,-11,-2,-3
1615919026910554,3,0,-1,0,3,1,1,3
1615919026910554,1,2,-4,-5,-24,9,-5,1
1615919026911552,-4,-3,-2,-2,13,-18,-10,-4
1615919026911552,4,0,-2,3,-7,10,10,1
1615919026932900,-1,-3,-3,1,-7,1,7,-2
1615919026932900,-3,0,4,-1,-2,-1,-25,-3
1615919026933899,-5,-5,-4,-2,-13,-10,-2,-4
1615919026933899,2,-1,-1,-2,3,-5,4,3
1615919026948110,-4,-1,-4,-4,-24,-12,-9,-3
1615919026948110,11,3,-4,-3,30,8,4,2
1615919026948832,-8,-4,2,-2,-14,-4,-3,-9
1615919026948832,3,-1,-1,1,10,9,-1,-2
1615919026970849,-13,0,0,-3,-6,-7,3,-2
1615919026970849,-2,2,1,2,-3,-5,2,2
1615919026971847,-2,0,1,3,9,-3,6,7
1615919026971847,5,-3,-5,1,5,8,-3,-1
1615919026993508,-1,-2,-4,-5,-21,3,-5,-2
1615919026993508,-6,-4,0,2,7,-16,-5,-1
1615919026994423,3,3,-2,3,8,5,-2,2
1615919026994423,3,1,1,0,-20,4,8,0
1615919027007855,-2,-1,-1,-5,2,-7,-16,-2
1615919027007855,-2,-1,-3,1,-13,6,23,-1
1615919027008832,-1,-3,-4,-4,-22,-2,-21,-4
1615919027008832,1,1,8,2,7,4,10,2
1615919027030799,0,-1,-1,0,1,15,0,-3
1615919027030799,8,0,-2,-2,-8,-25,-1,1
1615919027031769,-28,-3,1,-1,2,5,-2,-6
1615919027031769,0,1,-5,-4,-12,-11,-17,-1
1615919027053789,-1,1,2,4,22,-2,12,0
1615919027053789,-2,-3,-2,-2,3,-1,-9,-1
1615919027053789,4,-4,-5,0,3,2,1,2
1615919027053789,0,-3,2,-1,4,-2,-5,1
1615919027067672,-1,3,1,1,7,0,-5,-2
1615919027067672,-1,-2,0,-1,0,-4,-4,-2
1615919027068670,0,0,1,-2,-30,-6,-2,-2
1615919027068670,-3,-2,-5,-6,-4,-1,9,-1
1615919027091301,5,-2,-5,1,16,2,1,2
1615919027091301,6,3,0,0,4,2,11,0
1615919027091301,-16,-2,0,-3,-13,-2,-9,-5
1615919027091301,3,0,-2,1,23,1,6,-2
1615919027112870,2,-1,-6,-7,-10,-5,-6,3
1615919027112870,-8,-1,10,4,-20,-8,-14,-2
1615919027113870,4,-1,-2,-1,29,-1,15,4
1615919027113870,3,-4,-5,-3,-10,-4,-8,-1
1615919027127859,7,2,6,2,26,4,8,-2
1615919027127859,-2,-3,-10,-10,-39,-2,1,-5
1615919027128855,9,3,7,3,48,-4,6,3
1615919027128855,-4,0,0,2,-2,-1,-6,0
1615919027150820,3,-2,-5,-5,-6,1,-5,-1
1615919027150820,-3,-1,-1,0,-3,7,-2,0
1615919027151820,1,-2,-1,-1,-11,5,3,-5
1615919027151820,5,1,-2,-2,6,-2,-11,1
1615919027172936,-4,-3,2,2,-8,1,6,2
1615919027172936,-5,2,2,-3,13,6,6,2
1615919027173844,3,0,-5,-4,-9,-16,-17,-3
1615919027173844,8,0,2,1,-8,4,13,1
1615919027188155,-27,-2,-3,-2,-11,2,2,-3
1615919027188155,-2,-3,0,0,-4,-6,-11,-1
1615919027188155,4,-2,-3,-3,-12,9,11,1
1615919027188155,3,-3,-3,-1,6,8,1,-1
1615919027211095,0,3,2,-1,1,0,-1,-4
1615919027211095,0,-2,-5,-2,19,11,-10,-1
1615919027211095,-4,1,5,2,-29,-10,4,1
1615919027211095,-6,-2,-4,0,-1,3,1,-1
1615919027233066,4,-3,-2,0,-6,-5,-4,0
1615919027233066,-2,0,0,-3,14,-2,2,0
1615919027234035,15,-2,-3,-3,-1,-3,-7,0
1615919027234035,-7,-2,-6,0,-2,0,-2,-1
1615919027247772,2,1,3,-1,-23,-9,6,0
1615919027247772,-1,-3,-5,1,6,3,8,-1
1615919027248742,4,-1,-1,0,-2,3,-2,-1
1615919027248742,-3,2,3,-5,-7,-14,0,-1
1615919027269687,1,0,-3,1,23,1,-1,0
1615919027269687,-4,-5,3,-1,-11,-8,-6,-2
1615919027270684,0,-1,0,3,46,12,2,1
1615919027270684,0,1,-1,1,-18,-9,2,1
1615919027293622,3,-1,-2,-1,-5,-6,-8,-1
1615919027293622,-3,-3,-1,0,-2,0,10,-2
1615919027293622,-4,0,-1,-3,-1,-7,-8,-3
1615919027293622,11,-2,1,1,-11,-1,-5,-1
1615919027307585,-5,-1,0,-3,-3,17,7,0
1615919027307585,-4,-3,-3,0,0,-29,-15,-3
1615919027308583,1,-2,-1,-2,-21,4,-2,-1
1615919027308583,7,0,0,2,6,0,11,-1
1615919027330524,-1,0,0,-2,-23,-1,-39,-4
1615919027330524,-1,-6,-1,0,8,13,5,0
1615919027331349,-2,3,-2,-3,-18,-15,-7,1
1615919027331349,-7,-6,-2,-2,-4,5,14,0
1615919027353293,6,5,3,1,-4,-7,-11,-5
1615919027353293,3,1,2,3,8,12,1,-4
1615919027360299,-4,-2,-2,-1,-13,-7,-4,0
1615919027360299,0,-2,1,-2,7,3,-5,-5
1615919027367256,-1,-1,-7,-4,14,3,11,3
1615919027367256,6,2,12,6,-9,-3,0,2
1615919027375260,-4,-1,-2,-1,4,5,0,-3
1615919027375260,-7,2,-2,0,1,7,1,1
1615919027398221,3,-1,-2,-2,0,-10,1,2
1615919027398221,0,0,-4,-3,19,7,-2,0
1615919027399219,-20,-5,-3,1,-38,0,7,-1
1615919027399219,-3,0,0,-6,-14,-7,-11,-1
1615919027413181,1,0,1,1,7,0,21,3
1615919027413181,-3,0,-4,-2,-11,-5,-38,-2
1615919027414179,1,-4,0,1,29,5,4,2
1615919027414179,4,4,1,-3,-27,-4,-7,4
1615919027427205,-21,-5,-2,2,9,10,14,-9
1615919027427205,1,-2,0,-6,-26,2,7,2
1615919027435377,2,0,1,3,24,1,-3,-1
1615919027435377,-5,-3,-5,-2,-9,-3,-10,-6
1615919027450368,8,-3,1,2,2,-1,2,4
1615919027450368,-4,0,-4,-2,7,-3,2,-1
1615919027451193,0,-1,-3,4,21,-2,-6,-3
1615919027451193,-3,-2,-4,-2,-4,7,3,-2
1615919027473142,1,1,2,-3,-20,-8,0,-1
1615919027473142,-3,-1,-6,-1,0,-6,-4,-3
1615919027474142,2,-1,-1,-8,-7,-9,0,-1
1615919027474142,10,2,8,5,17,11,21,9
1615919027487105,-19,-3,-3,-3,-8,-7,1,-3
1615919027487105,1,-1,5,5,6,5,5,0
1615919027495616,-5,-4,-7,-7,-2,-3,2,-1
1615919027495616,10,2,-1,-1,-30,-8,-4,0
1615919027510456,8,-2,-3,-1,31,-1,-2,2
1615919027510456,-6,3,-2,0,-1,-2,1,1
1615919027510456,-2,0,1,0,-10,-4,-3,-1
1615919027510456,-6,-7,-3,0,2,-4,-2,0
1615919027532892,3,1,2,1,8,11,0,-5
1615919027532892,-5,-1,-3,-3,-28,-17,-7,0
1615919027533891,10,2,0,1,12,6,-1,-1
1615919027533891,-7,-1,-3,-2,14,3,-1,-2
1615919027547582,3,0,0,-1,4,1,-7,0
1615919027547582,1,-3,-1,-3,-11,2,6,2
1615919027555688,0,0,0,-1,1,5,1,0
1615919027555688,-8,-4,-3,0,1,-3,18,-3
1615919027569814,4,3,4,1,-7,-8,-12,1
1615919027569814,-16,-5,-3,-1,18,14,10,-4
1615919027570797,6,3,-1,1,-6,-9,-2,1
1615919027570797,-2,0,-2,0,7,0,-6,-2
1615919027592906,0,-1,-3,-2,18,1,5,0
1615919027592906,8,1,1,-1,-4,2,2,1
1615919027593906,-4,-3,0,-1,-13,10,-2,-3
1615919027593906,-5,-3,0,2,7,-8,-14,-2
1615919027607472,5,-1,-6,-2,-10,-6,-3,0
1615919027607472,-3,-1,6,-2,-22,4,-17,-8
1615919027614761,-1,0,3,2,24,2,1,-2
1615919027614761,-5,-1,-2,-2,-3,2,-1,-1
1615919027629905,-7,-6,-4,-3,-12,-10,-12,-5
1615919027629905,4,2,-5,-5,-34,-8,7,1
1615919027630804,-4,0,2,3,5,13,8,-3
1615919027630804,5,4,1,-2,10,-6,-17,-2
1615919027653149,-2,-2,-1,-2,-19,3,9,1
1615919027653149,5,-3,-6,-3,-9,4,9,-1
1615919027654146,-3,0,0,1,3,-7,-6,0
1615919027654146,2,1,-4,-5,-26,-7,5,-1
1615919027675924,5,-2,2,-1,-5,5,-8,-2
1615919027675924,-30,-1,0,1,25,-6,-10,-3
1615919027676815,3,-4,2,0,-18,-2,26,2
1615919027676815,-2,0,1,-2,4,-9,-31,-2
1615919027690585,5,2,-2,1,-4,-7,-11,1
1615919027690585,4,-1,-2,0,-2,1,4,3
1615919027690585,6,-3,-2,-2,-5,2,1,-1
1615919027690585,-13,-2,-1,-1,-3,10,7,-1
1615919027713844,-2,0,1,-3,-14,-21,-3,-2
1615919027713844,7,-4,-2,-3,16,-7,-3,1
1615919027713844,-3,3,0,-6,13,12,-13,-1
1615919027713844,3,-1,1,4,-7,1,6,-3
1615919027736237,-2,-1,3,2,12,10,-2,0
1615919027736237,10,1,-6,-3,1,6,13,5
1615919027736237,-14,-7,3,2,-2,-4,-14,-9
1615919027736237,0,0,0,-3,-1,1,-3,-2
1615919027750011,-1,1,0,-1,2,4,33,2
1615919027750011,7,-1,-3,1,15,-8,-26,0
1615919027750985,-3,-3,-6,-7,-17,0,-11,-2
1615919027750985,-3,-2,4,4,6,-5,12,1
1615919027772926,3,-1,-1,-1,-23,-9,-1,-3
1615919027772926,-1,1,0,0,9,6,4,-3
1615919027773923,3,0,-7,-4,5,-7,0,1
1615919027773923,-2,-4,-3,1,13,2,3,2
1615919027796374,-2,-1,0,-5,-8,-1,-11,-2
1615919027796374,8,3,3,-2,-10,-5,2,0
1615919027796374,0,-2,-2,0,-3,3,2,0
1615919027796374,3,0,0,-2,3,-4,-1,-1
1615919027810698,-3,-5,1,4,14,10,5,0
1615919027810698,-3,0,-4,-3,-6,-3,-5,-2
1615919027810698,4,2,3,1,2,-2,3,1
1615919027810698,0,-2,-1,0,8,-3,14,-2
1615919027833074,-1,-1,-1,-5,-14,-5,-49,-4
1615919027833074,8,0,0,1,7,-4,4,-1
1615919027833975,-33,-3,1,1,-2,-6,1,0
1615919027833975,12,3,-4,-5,-2,3,1,-2
1615919027856365,1,-2,-3,2,13,-8,2,2
1615919027856365,-4,2,2,-2,-19,-1,9,-5
1615919027857368,11,-5,-1,2,7,6,-5,4
1615919027857368,-8,0,-2,-4,-16,-13,-1,1
1615919027870354,-6,-1,-1,1,10,1,8,-2
1615919027870354,-3,-4,-2,0,5,7,0,-2
1615919027871331,2,1,-1,-1,5,0,7,-2
1615919027871331,-3,0,-2,2,15,1,-5,-1
1615919027893272,5,-2,-4,-6,-31,-3,1,1
1615919027893272,-3,-2,2,3,46,2,17,1
1615919027894268,0,3,0,-3,-14,-4,-4,4
1615919027894268,4,-5,-3,-4,-4,-1,-9,-4
1615919027915344,-2,-1,0,1,3,-5,-5,0
1615919027915344,-27,-4,-2,-1,2,0,9,-3
1615919027916341,5,1,-8,-6,-16,-7,5,0
1615919027916341,3,2,6,4,-1,-5,-5,0
1615919027930309,-2,1,-1,1,14,5,6,-1
1615919027930309,4,-1,1,-1,-28,2,-10,2
1615919027931307,1,-2,-6,-3,-12,-1,-1,-7
1615919027931307,-10,-8,-5,-7,13,-7,-11,1
1615919027953311,8,6,2,-1,-13,-9,9,-3
1615919027953311,2,0,1,0,3,1,-3,1
1615919027954309,7,1,2,1,-5,-1,-7,-1
1615919027954309,-7,-3,-2,-4,-18,1,1,-5
1615919027976636,-8,-6,-3,-1,15,5,16,2
1615919027976636,2,-2,-9,-3,-11,-11,-51,-6
1615919027976636,0,1,7,1,-1,4,7,1
1615919027976636,15,2,-2,1,63,8,0,0
1615919027990697,-10,-2,-1,2,-22,1,-5,-2
1615919027990697,12,-1,-3,0,-7,-1,10,1
1615919027990697,-3,-3,-2,-1,-12,-7,-9,-1
1615919027990697,2,0,-1,1,0,7,2,0
1615919028020612,2,-1,0,-1,11,-13,0,-1
1615919028020612,0,-1,-1,1,5,6,6,-1
1615919028021577,4,0,-2,0,-8,-7,-5,-1
1615919028021577,-6,-3,-4,-4,-16,6,2,-3
1615919028035429,-1,-1,-1,-1,6,6,0,2
1615919028035429,-4,-5,0,-5,-24,-20,-6,-6
1615919028036426,-9,2,2,2,19,5,7,2
1615919028036426,-6,0,0,-3,-23,-5,14,5
1615919028050438,2,0,-1,-1,-17,-2,-15,-1
1615919028050438,3,-1,-1,-1,17,15,6,2
1615919028050438,-2,-2,-2,0,5,-15,-1,-5
1615919028050438,7,2,-2,3,2,13,12,3
1615919028073849,9,-3,-1,-3,20,4,-1,1
1615919028073849,1,1,0,0,-2,-3,5,-1
1615919028073849,3,4,-1,-1,7,4,-2,0
1615919028073849,-12,-3,0,1,-15,-10,1,-2
1615919028095886,3,-1,-2,-1,8,3,-5,-1
1615919028095886,-7,-3,0,2,7,-2,-3,-3
1615919028096777,-3,-3,-2,-1,16,1,2,-1
1615919028096777,3,0,3,-2,-7,1,-12,-3
1615919028110659,-5,-1,-4,-1,11,2,-2,-2
1615919028110659,-1,0,-1,-2,12,0,9,2
1615919028110659,2,-3,-3,-1,-3,3,-8,2
1615919028110659,-1,-2,-2,-2,-5,-6,-4,-5
1615919028133109,-2,-1,0,2,-2,3,-4,0
1615919028133109,-4,1,-5,0,4,3,2,-2
1615919028134001,1,0,16,4,-8,-11,0,-1
1615919028134001,4,2,0,-1,-14,4,-6,0
1615919028155658,6,-1,-3,-3,-23,-4,14,2
1615919028155658,-18,-7,-1,-1,-8,-8,-43,-8
1615919028156651,2,-2,-10,-1,15,11,4,1
1615919028156651,-5,-2,7,2,-21,-19,1,0
1615919028169694,2,2,0,-2,4,3,-22,-12
1615919028169694,7,2,2,-3,-13,2,4,1
1615919028171453,-2,-2,-5,-3,-6,-4,-4,-2
1615919028171453,-9,-5,-3,-4,0,5,-4,-2
1615919028193415,-4,-2,-2,2,21,1,9,1
1615919028193415,11,0,1,2,-22,-6,3,0
1615919028194368,-4,-2,0,-10,-35,-1,-10,-4
1615919028194368,4,-1,-2,4,45,8,5,1
1615919028215818,-1,0,0,1,24,-10,2,0
1615919028215818,-7,2,0,-3,-22,3,19,1
1615919028216816,3,-4,-3,3,16,-9,-38,1
1615919028216816,-3,0,1,2,6,8,1,-2
1615919028229780,-2,-2,-4,-4,-3,2,1,0
1615919028229780,-4,-3,-1,-4,-6,-17,4,-1
1615919028230778,1,2,-4,-3,-4,-1,9,0
1615919028230778,10,-1,-2,3,21,12,-7,-1
1615919028253875,-7,-1,0,-2,-18,-3,-1,0
1615919028253875,2,-3,-3,-3,-5,-3,7,1
1615919028253875,-2,1,3,1,2,-1,2,-3
1615919028253875,7,1,2,0,-4,1,-5,0
1615919028276400,1,1,-1,4,7,6,6,3
1615919028276400,-3,-1,-2,-3,-16,-8,-10,-3
1615919028276400,-1,-2,-10,-8,-9,-6,4,-3
1615919028276400,-6,-1,7,5,-1,9,-1,-1
1615919028289946,-3,-3,-1,-2,-7,-5,12,4
1615919028289946,-5,2,0,2,8,0,0,-4
1615919028298185,6,-1,3,2,10,12,-28,-5
1615919028298185,9,2,-7,-2,-8,-21,-4,1
1615919028312902,-8,-2,0,-7,-38,1,3,-2
1615919028312902,6,-1,0,0,4,11,10,2
1615919028313901,8,1,-1,1,6,-6,8,-1
1615919028313901,-22,-2,-3,-3,-21,-4,-3,1
1615919028335900,5,-2,1,3,14,5,-4,-2
1615919028335900,-5,-6,-5,-11,-21,-7,-6,-2
1615919028336897,1,2,1,2,1,4,10,1
1615919028336897,-2,-2,-4,-5,-11,-15,-8,-3
1615919028349948,-2,-3,0,0,8,-1,-1,-1
1615919028349948,-2,0,1,4,18,18,27,2
1615919028364984,-7,-3,-2,2,2,-7,-35,-2
1615919028364984,2,0,3,-4,-16,4,-7,-2
1615919028373872,-4,-2,-9,1,21,-3,-7,-3
1615919028373872,1,-1,6,0,-24,1,-6,-1
1615919028373872,-2,2,0,1,0,-2,19,2
1615919028373872,-3,-3,-6,-1,10,7,3,-5
1615919028403732,-2,0,-1,2,4,-4,-8,-1
1615919028403732,-9,-4,-8,-6,-11,1,-8,-1
1615919028403732,-3,0,0,-1,17,-4,13,3
1615919028403732,0,-1,4,-3,-11,-4,-2,0
1615919028409712,-5,0,2,-3,0,0,8,-2
1615919028409712,5,-2,-3,4,30,6,1,-1
1615919028417735,-2,-4,-4,-2,20,-5,-2,-1
1615919028417735,1,-2,-7,-2,1,-3,9,1
1615919028433559,2,2,5,1,-13,4,-11,-1
1615919028433559,5,2,0,-2,1,-14,-9,-1
1615919028434449,-5,-2,2,0,-4,12,24,-1
1615919028434449,-3,-1,-3,2,15,-7,-3,-3
1615919028455432,0,-3,-4,-5,-22,1,2,1
1615919028455432,1,3,-4,2,8,-7,-2,0
1615919028456425,-1,-3,2,-2,2,-3,1,1
1615919028456425,-1,-2,0,-3,-18,7,10,1
1615919028469391,-1,-3,-2,0,-10,-7,-4,-4
1615919028469391,-3,-1,-5,-1,38,7,-17,0
1615919028478209,-6,0,1,0,-19,-1,12,-1
1615919028478209,8,0,3,6,21,0,-5,0
1615919028493897,-11,-2,-3,-11,-29,1,0,-2
1615919028493897,3,-2,3,3,10,-1,2,3
1615919028493897,3,-1,-1,-4,-20,-2,-2,-2
1615919028493897,-1,3,-4,-3,-1,4,-8,-5
1615919028516318,2,1,4,6,8,-7,5,6
1615919028516318,-8,-3,0,-2,-1,0,-17,-11
1615919028516904,2,1,-1,0,-9,1,-1,-2
1615919028516904,-1,-2,-2,-2,15,-5,-2,1
1615919028530044,-1,-2,-5,2,14,5,-3,-1
1615919028530044,-1,1,0,1,21,-2,4,-1
1615919028538073,-1,-4,-2,0,0,-11,13,0
1615919028538073,-4,-1,-2,-5,-18,10,-25,-6
1615919028553521,-1,-1,-1,3,19,-9,-4,-4
1615919028553521,2,-2,2,0,-15,7,7,6
1615919028554527,-16,0,1,3,16,10,-14,-4
1615919028554527,-2,-6,-4,-1,0,-7,17,1
1615919028576378,10,1,0,-2,-8,6,5,-1
1615919028576378,2,-2,-8,-3,-22,-13,-12,-1
1615919028576378,1,0,5,-1,-2,2,6,1
1615919028576378,1,2,-2,-5,0,1,3,2
1615919028589943,-1,0,7,4,0,-3,-8,1
1615919028589943,0,-2,-1,-1,3,5,10,-4
1615919028598035,9,4,-4,-8,-26,-5,-5,2
1615919028598035,-6,-3,-6,3,8,4,5,-3
1615919028613232,-1,0,9,0,-10,-4,-5,-3
1615919028613232,2,2,2,0,6,2,6,4
1615919028613232,-8,-6,-6,-5,-24,-3,-5,-4
1615919028613232,-2,-1,-1,-1,-7,4,12,1
1615919028636193,3,3,-4,1,9,-7,-2,-1
1615919028636193,0,1,2,-2,-8,6,25,7
1615919028636193,5,-1,-1,-2,-7,3,-14,-4
1615919028636193,-5,1,-1,-1,5,-2,9,0
1615919028666351,-7,-6,-4,-2,7,3,-2,0
1615919028666351,2,-3,5,2,8,-10,-6,-1
1615919028666351,5,1,-4,-4,-4,0,7,0
1615919028666351,4,-2,-2,1,2,-3,-4,2
1615919028672431,-1,0,0,-3,-14,-6,-4,-2
1615919028672431,5,-1,-2,-2,7,3,11,-2
1615919028673431,-6,-2,1,3,7,0,-25,-1
1615919028673431,-1,-1,1,0,-37,-7,-3,-2
1615919028696419,-3,0,-6,-2,10,10,-1,-3
1615919028696419,-2,-1,-1,-1,-14,-11,8,1
1615919028696419,3,0,0,-3,2,7,14,-1
1615919028696419,-4,-2,-3,-2,-12,-6,-12,-4
1615919028718819,2,-1,1,1,13,10,-8,4
1615919028718819,2,1,0,0,-6,-7,-2,-1
1615919028718819,-4,-4,-2,0,-6,0,-2,0
1615919028718819,5,2,-5,-3,-1,0,-3,0
1615919028732796,-4,-1,10,1,-6,-1,5,-1
1615919028732796,-25,-5,-2,0,-10,4,-14,-7
1615919028733776,-3,-2,0,3,28,-2,4,1
1615919028733776,1,1,-2,-6,3,-3,14,2
1615919028756420,11,-2,-8,-4,-1,4,-11,3
1615919028756420,3,0,2,2,-12,-4,-20,-6
1615919028756420,-2,0,0,-1,29,7,10,-1
1615919028756420,-3,-2,2,3,-51,-9,-12,-3
1615919028778896,0,2,-5,-5,2,-11,12,0
1615919028778896,1,-3,-4,-7,-7,5,-4,0
1615919028778896,1,2,-2,2,2,-9,-4,1
1615919028778896,0,0,1,3,27,-11,-2,-4
1615919028792814,-1,-2,-2,-6,-17,7,0,1
1615919028792814,-5,-1,-2,1,4,7,0,-7
1615919028793815,23,3,2,-1,-15,-12,-3,0
1615919028793815,-28,-4,-3,0,35,14,-1,-3
1615919028815880,-8,-2,-4,-4,-17,-12,-2,-4
1615919028815880,10,1,1,1,11,8,13,3
1615919028816787,5,0,-5,-2,-12,-4,-41,-4
1615919028816787,6,1,1,-3,-10,-12,-1,0
1615919028838924,-1,-2,-5,0,-2,10,-3,-3
1615919028838924,-3,1,1,-5,-25,-16,1,0
1615919028838924,-9,-2,1,2,1,-4,3,-2
1615919028838924,-1,0,-1,-2,-5,-1,-1,-2
1615919028852503,-3,-2,-2,1,-1,4,7,-2
1615919028852503,8,1,1,1,11,-15,3,2
1615919028853501,-7,-2,-1,0,-9,-3,2,-1
1615919028853501,10,0,0,-3,-3,9,2,1
1615919028876815,-16,-2,1,2,16,3,1,-2
1615919028876815,8,1,-1,-2,9,10,-1,0
1615919028877102,-1,-1,-1,0,10,-18,-2,0
1615919028877102,4,-4,-2,2,8,19,14,3
1615919028898892,7,1,2,-2,-21,-9,9,-5
1615919028898892,0,1,-3,1,13,1,-49,-1
1615919028898892,-22,-6,-4,-3,-4,5,12,1
1615919028898892,24,3,-2,0,2,-2,-13,-3
1615919028912992,-1,0,-2,0,10,-5,13,3
1615919028912992,-9,-1,-1,-3,2,-2,3,-1
1615919028912992,1,-5,-6,-2,-20,3,10,0
1615919028912992,-9,-5,0,-1,10,1,-6,-1
1615919028936008,1,2,1,3,2,-9,-11,-1
1615919028936008,0,-4,-1,-1,-16,-2,5,0
1615919028937008,10,-2,-4,-5,2,9,0,-2
1615919028937008,-4,0,1,1,-6,-5,8,0
1615919028959128,7,1,2,2,-6,10,-13,-2
1615919028959128,9,-3,-1,-2,31,-11,17,0
1615919028960125,-6,0,-1,-5,-17,1,-40,-7
1615919028960125,0,-3,-2,-3,7,3,13,6
1615919028972872,3,-1,-6,-2,-5,-2,-21,-4
1615919028972872,3,3,3,0,19,9,15,-3
1615919028973872,1,3,1,1,-6,-12,2,1
1615919028973872,-7,-1,-2,-5,-26,-6,1,-1
1615919028996399,-1,-2,-2,-1,6,-3,-4,1
1615919028996399,5,-3,-2,1,-20,4,-4,0
1615919028996399,-2,-2,1,2,9,-4,12,-2
1615919028996399,-4,2,2,0,-7,-1,-9,-2
1615919029025896,0,-5,-4,-1,15,3,10,-1
1615919029025896,1,1,-2,-2,-37,4,-5,1
1615919029026867,-3,1,8,-2,-3,10,31,1
1615919029026867,-1,1,-2,3,14,-16,-49,-2
1615919029032885,1,0,0,-5,-12,-2,6,-3
1615919029032885,-10,-4,-2,-1,5,1,-1,-3
1615919029033885,2,1,-6,1,-2,-5,-5,0
1615919029033885,0,-1,-1,-5,-5,4,15,-1
1615919029056005,-3,0,2,1,-2,1,-1,1
1615919029056005,-3,-1,-3,0,-3,-1,-18,-7
1615919029056896,2,-1,-1,-2,8,-7,9,10
1615919029056896,1,-4,-2,0,13,3,-4,-10
1615919029078199,1,1,-4,-4,-4,-1,-3,1
1615919029078199,-3,4,2,1,3,2,12,4
1615919029079719,-2,-4,-5,2,11,3,-11,-12
1615919029079719,2,0,1,-4,-1,-8,-7,-1
1615919029092895,-2,-3,-1,-3,-6,0,13,3
1615919029092895,-4,-4,-1,1,13,-4,2,1
1615919029093894,-3,1,-2,-1,-6,5,-3,0
1615919029093894,-6,-1,-1,-5,-24,-2,5,-1
1615919029115540,-2,1,1,3,9,-13,-6,-6
1615919029115540,-2,-1,-8,-5,-15,4,7,2
1615919029116509,0,-2,6,0,3,-3,-5,-2
1615919029116509,-8,-1,1,3,22,6,6,1
1615919029138696,1,2,1,-1,-10,-10,1,2
1615919029138696,-2,-3,-4,-5,-24,-7,-5,-1
1615919029139722,5,0,-4,0,21,6,3,1
1615919029139722,2,-2,5,0,-16,-6,6,-4
1615919029160773,-9,-1,0,3,25,14,7,1
1615919029160773,-3,-4,-2,-10,-32,-11,-31,-3
1615919029161772,-4,0,-5,-7,-26,-19,-5,-2
1615919029161772,12,4,1,3,30,4,-5,2
1615919029176011,3,-1,0,-5,-9,-8,-6,3
1615919029176011,-4,0,2,6,19,10,6,-13
1615919029177195,2,2,0,0,19,13,0,2
1615919029177195,-4,-2,-3,-2,-10,-15,-4,0
1615919029198882,1,-3,-4,1,1,9,13,-1
1615919029198882,-2,5,2,-3,10,-5,-4,0
1615919029198882,-9,0,-1,-5,-17,-1,21,0
1615919029198882,14,0,-4,0,0,-16,-55,-9
1615919029212893,-29,-5,-2,1,11,3,4,1
1615919029212893,3,-1,1,-3,-14,-7,-1,4
1615919029213917,-1,-5,-1,0,17,4,-2,-4
1615919029213917,-7,-2,-2,-4,-12,7,12,2
1615919029235896,6,-1,2,-5,-12,0,-9,-8
1615919029235896,-2,-2,1,3,5,-11,-4,1
1615919029236893,-1,0,5,3,-2,1,1,0
1615919029236893,-5,-4,-6,-1,8,6,12,0
1615919029258916,8,1,-3,0,12,9,-2,2
1615919029258916,-6,-1,1,2,15,-8,10,-3
1615919029258916,0,-3,-8,-4,-9,7,-9,-2
1615919029258916,-10,-2,1,-3,-19,-8,7,0
1615919029272547,9,3,-4,-3,-16,-8,-3,-2
1615919029272547,4,0,-3,-2,11,1,21,4
1615919029280715,-1,-1,0,2,-6,0,-31,-2
1615919029280715,-1,-1,0,-2,5,1,6,-1
1615919029296421,2,-3,-3,1,6,-3,-5,-1
1615919029296421,-6,-2,-1,-7,-28,7,15,1
1615919029296421,9,-1,-2,-2,-1,-15,-29,-13
1615919029296421,0,-1,-3,0,-1,11,16,3
1615919029318422,16,-1,0,-3,-2,-6,-6,-1
1615919029318422,2,2,-3,1,-6,4,-6,2
1615919029319419,-6,-1,1,-1,8,5,13,1
1615919029319419,-1,-2,-1,-3,2,6,-1,0
1615919029332482,-4,0,-3,-7,-24,-12,13,-2
1615919029332482,-3,0,5,6,24,6,-14,-1
1615919029340625,-6,-3,-3,-4,-29,3,6,-3
1615919029340625,1,4,-3,1,26,2,10,0
1615919029356397,-6,-3,-6,-2,-19,-5,4,-1
1615919029356397,-4,-1,-1,-8,-18,-5,-2,-2
1615919029356397,9,-1,4,4,24,2,4,6
1615919029356397,-16,-3,2,-1,-8,-7,-5,-3
1615919029378319,-3,-4,-4,-4,10,3,-5,-4
1615919029378319,4,-3,-4,6,22,11,-3,0
1615919029380314,-7,1,-1,-5,-25,-12,2,1
1615919029380314,10,1,-1,0,-5,8,2,-4
1615919029392521,0,-1,1,1,20,7,-3,0
1615919029392521,-10,-6,-3,-1,3,-3,12,3
1615919029408886,10,1,-4,-3,-12,0,-27,3
1615919029408886,-18,-3,-3,2,5,6,-5,-14
1615919029416385,2,-1,3,0,-8,-12,-12,-1
1615919029416385,0,0,-8,-5,-10,3,6,-2
1615919029417918,-6,-6,-1,-2,5,-2,9,2
1615919029417918,3,3,1,1,-23,3,-4,-1
1615919029446435,-6,-1,-3,2,30,1,-15,-2
1615919029446435,-3,-3,-8,-3,-6,-8,-5,-7
1615919029448032,-1,2,5,0,8,-2,15,2
1615919029448032,3,-1,-7,-4,3,-4,-10,5
1615919029451977,-2,-1,-5,-3,-14,2,6,0
1615919029451977,5,3,3,0,8,4,-2,-1
1615919029460686,0,0,2,1,-10,-7,2,-1
1615919029460686,11,0,-2,-2,-2,-2,11,0
1615919029475653,-13,-4,-5,2,-2,-6,-11,-1
1615919029475653,3,0,2,-2,3,-2,7,3
1615919029477651,-2,-4,-2,0,-3,8,17,4
1615919029477651,6,2,1,-4,1,-2,-23,0
1615919029498922,-4,-2,-3,-2,-15,10,33,-7
1615919029498922,-18,-1,1,4,12,-16,-19,-1
1615919029499922,15,0,-1,-1,-10,-7,13,0
1615919029499922,-4,-4,-3,0,10,-3,-5,-3
1615919029512555,3,1,2,1,-6,10,12,-1
1615919029512555,11,0,7,-1,-3,-8,1,0
1615919029520773,-9,-3,-4,-1,-2,1,6,-8
1615919029520773,-2,2,-4,2,6,-15,3,5
1615919029535340,-1,0,-1,-3,-9,8,-29,-1
1615919029535340,10,-1,6,4,3,-23,-1,-1
1615919029542567,-6,-3,-9,-3,8,4,7,-2
1615919029542567,-5,-2,2,3,3,6,-5,-1
1615919029558128,5,2,2,0,-24,1,7,3
1615919029558128,-1,-2,0,1,15,11,0,-1
1615919029561149,-3,3,-3,-2,-21,-3,-16,-10
1615919029561149,-6,-3,0,3,-3,-9,12,2
1615919029581030,-1,-2,5,-3,-1,-5,-2,-2
1615919029581030,-3,0,-4,-3,-11,13,-9,-2
1615919029582031,-1,-2,-2,2,9,6,-2,-1
1615919029582031,1,0,5,-1,-7,5,-4,2
1615919029594980,1,-1,-1,-4,3,-11,17,-5
1615919029594980,2,-1,-4,1,-7,7,2,4
1615919029602068,-6,-2,-1,-1,7,4,-1,-1
1615919029602068,0,-2,-1,-3,2,0,5,3
1615919029618109,-2,-1,0,4,13,-15,-14,0
1615919029618109,13,2,-5,-5,-4,14,2,-2
1615919029620103,-3,2,8,3,17,-8,17,0
1615919029620103,-2,0,-2,-2,-29,-6,-6,0
1615919029641299,-1,-1,0,4,24,4,-3,2
1615919029641299,-6,-4,-2,-5,-18,-4,0,-4
1615919029642307,1,-1,-3,-1,1,6,-6,1
1615919029642307,-4,-1,-5,-3,18,-5,8,-2
1615919029654345,1,2,1,0,-19,-2,1,-2
1615919029654345,-4,-3,-1,1,-3,-10,-12,1
1615919029663325,-4,-1,-5,-2,-4,0,-4,-1
1615919029663325,3,1,-4,-1,-1,9,8,-1
1615919029678304,0,1,2,-1,13,4,16,3
1615919029678304,-7,-2,-5,-2,-4,4,-12,-2
1615919029680277,0,-2,1,0,-7,-12,-4,-1
1615919029680277,1,-3,1,-2,29,7,-1,-1
1615919029701328,-1,-2,-8,-6,-14,-2,4,0
1615919029701328,-2,2,7,8,18,6,2,-2
1615919029702328,8,2,-1,-3,-15,-4,-4,4
1615919029702328,-27,-4,-1,0,3,-11,7,-4
1615919029714534,3,0,-2,-4,5,11,-2,-1
1615919029714534,3,2,12,4,-2,-11,-2,-1
1615919029723412,-7,-1,-8,-2,31,4,-8,-3
1615919029723412,-9,-1,2,-1,-40,-7,-7,1
1615919029738594,-1,-1,-1,1,-22,-11,1,-4
1615919029738594,-3,0,-5,-6,20,3,-11,-8
1615919029740485,-6,-2,3,3,9,-4,14,1
1615919029740485,8,-1,1,0,18,2,-12,-1
1615919029761299,-1,0,2,-1,-8,-5,-21,1
1615919029761299,3,-1,-2,0,-7,2,18,4
1615919029762302,-1,0,0,-1,1,3,-10,-1
1615919029762302,5,0,-5,0,-1,-11,4,-3
1615919029774292,-5,-4,-3,-1,25,5,-5,-5
1615919029774292,-1,0,-9,-3,1,-4,0,3
1615919029783393,0,0,10,3,0,1,1,-2
1615919029783393,2,-1,-4,-6,-13,5,-14,-1
1615919029798897,1,1,10,5,-1,-12,-3,0
1615919029798897,-4,2,-7,-2,7,3,-2,-1
1615919029799897,-2,-3,-3,-7,-39,-5,-2,-1
1615919029799897,5,0,-3,0,17,10,4,-3
1615919029820881,9,-3,-3,0,-12,-8,6,5
1615919029820881,-4,-3,0,-2,-12,-9,-44,-6
1615919029822876,2,-2,-6,-2,15,3,0,0
1615919029822876,2,1,0,-1,-13,-5,5,0
1615919029834844,3,-2,-6,-5,0,2,-1,-1
1615919029834844,0,-3,0,2,0,-1,9,3
1615919029843904,0,-2,-2,-1,0,2,-5,-1
1615919029843904,6,-3,-5,-4,-2,3,2,1
1615919029858918,-10,-3,2,-4,-4,-2,-5,-3
1615919029858918,0,-1,2,-2,-12,-2,9,0
1615919029860915,-3,1,-5,-2,5,3,-1,-1
1615919029860915,-4,-4,-4,-2,-1,-4,4,0
1615919029881414,-14,-4,-1,2,1,2,8,1
1615919029881414,15,4,-1,-3,-3,2,-28,-3
1615919029882414,-3,-3,-1,-1,1,-12,-9,-1
1615919029882414,1,0,-1,-2,-1,-1,2,1
1615919029894730,-3,1,-6,-1,3,4,-5,-3
1615919029894730,-4,-4,-1,0,-2,0,7,0
1615919029903757,3,-2,-1,0,1,0,15,2
1615919029903757,0,0,-1,1,0,-4,-6,0
1615919029917962,-2,1,0,-4,-1,3,-7,0
1615919029917962,-7,-4,-3,2,9,-10,13,-1
1615919029919929,2,2,4,-1,-20,-2,1,0
1615919029919929,-3,-3,1,-2,-3,2,8,6
1615919029941388,7,1,-7,-2,-8,3,-2,-3
1615919029941388,5,1,-1,2,14,6,8,-1
1615919029942393,1,1,8,-1,13,-1,-3,1
1615919029942393,4,-2,-1,0,5,-2,8,0
1615919029954896,-2,-3,5,3,7,0,-5,0
1615919029954896,3,0,-1,-1,-9,6,7,8
1615919029963868,-3,-2,-4,0,6,7,18,2
1615919029963868,-4,-2,-1,1,24,-4,-26,-6
1615919029978827,-1,-2,-2,4,-5,-12,0,0
1615919029978827,-4,0,-4,-10,-33,-4,-9,-5
1615919029979800,5,-3,-4,-2,-8,7,2,-2
1615919029979800,0,-2,0,2,17,6,24,4
1615919030000876,-20,0,-5,0,21,6,-6,-2
1615919030000876,-4,-1,5,7,9,-21,19,0
1615919030002870,-4,-3,-5,-3,-24,4,-16,-5
1615919030002870,2,0,-2,-2,-9,-8,-3,-3
1615919030014940,3,0,0,2,-23,4,-2,4
1615919030014940,-8,-4,-4,-2,10,4,10,-8
1615919030023846,6,2,3,5,25,-4,-7,9
1615919030023846,-5,1,2,-2,-32,-4,-11,-9
1615919030038904,6,1,1,-1,4,8,23,2
1615919030038904,-4,-2,0,-1,9,7,-7,-3
1615919030039904,-2,-3,-6,-4,-28,-12,-8,-6
1615919030039904,-1,0,0,2,22,-9,-11,0
1615919030068891,0,0,-3,-6,-15,-1,0,-4
1615919030068891,2,0,2,0,1,-5,20,2
1615919030069888,1,0,-6,-5,7,1,-62,-6
1615919030069888,-7,-4,-4,1,-9,4,16,1
1615919030075010,11,-2,1,-1,5,-10,-23,-11
1615919030075010,-3,-1,-4,-1,-18,-2,-7,1
1615919030083894,-2,-1,-1,-1,6,-1,34,-1
1615919030083894,-2,-4,-4,-3,-19,0,-3,-4
1615919030098910,8,4,3,1,10,0,-10,3
1615919030098910,-6,2,1,-1,-1,-2,13,-3
1615919030099909,-5,-2,-4,-1,0,-3,-2,-2
1615919030099909,6,-2,-2,-5,-16,10,-1,-1
1615919030121023,-4,-1,1,2,2,-15,9,-1
1615919030121023,1,-2,-4,-3,-13,-3,-8,3
1615919030123018,-1,0,-1,3,19,1,1,-4
1615919030123018,-4,2,4,2,-18,2,13,1
1615919030134114,1,1,-2,-3,-1,3,-35,0
1615919030134114,-4,-3,-2,0,-2,-7,-7,-3
1615919030143895,-3,-1,-2,-4,-11,-3,5,0
1615919030143895,4,-3,-1,1,23,-2,-11,0
1615919030158904,-4,1,-3,-5,-13,-5,5,-3
1615919030158904,4,1,2,0,-15,4,-6,-2
1615919030160901,13,0,-4,-1,19,8,24,8
1615919030160901,-10,0,6,4,-5,-5,-6,-2
1615919030181447,0,0,1,1,4,6,6,3
1615919030181447,-2,-3,-6,-6,-6,2,-3,-1
1615919030182447,2,-1,2,2,-11,-11,4,1
1615919030182447,4,-1,-4,-1,-8,-2,7,0
1615919030194668,-17,-5,-5,-1,20,1,4,-3
1615919030194668,10,3,5,1,-5,-11,-2,0
1615919030203790,-8,1,3,2,0,3,-3,2
1615919030203790,0,0,-2,-2,10,6,-7,-3
1615919030218296,-8,-2,0,0,-13,-14,-9,1
1615919030218296,8,0,-6,-2,5,3,9,-3
1615919030220265,-2,0,0,2,4,6,-5,-2
1615919030220265,-1,2,3,-1,-2,-12,-4,1
1615919030241474,17,-1,-1,-2,3,7,-9,2
1615919030241474,-19,-4,-3,-3,-6,4,-6,-7
1615919030242474,2,0,1,-1,-1,-5,8,2
1615919030242474,-1,-3,-3,0,-4,-2,-22,-9
1615919030254487,6,1,1,-2,-35,1,-5,-3
1615919030254487,0,-3,-2,1,-4,1,0,0
1615919030263895,-6,-2,-1,-1,0,4,6,-4
1615919030263895,0,-3,-5,-4,5,2,23,2
1615919030278897,-7,-3,11,6,-1,-11,-13,-3
1615919030278897,0,3,-2,1,9,3,-4,2
1615919030279898,-3,-2,-2,-5,-4,-13,-2,-3
1615919030279898,4,3,-1,3,27,4,1,0
1615919030300904,-3,-2,-6,-7,-25,3,7,-4
1615919030300904,-4,-4,0,2,17,11,-2,0
1615919030302922,8,1,1,3,3,-12,-7,-2
1615919030302922,-1,1,-3,-5,-12,-2,-1,2
1615919030315038,-4,-2,0,-3,10,7,7,-3
1615919030315038,13,-3,4,2,-5,-13,-9,2
1615919030324035,-16,2,0,-2,-10,5,10,-1
1615919030324035,1,0,2,1,6,-5,-16,-14
1615919030338245,-1,0,-5,0,-7,8,-7,4
1615919030338245,8,1,-4,-4,3,-10,7,-2
1615919030339771,-1,-4,-1,2,5,15,-8,-3
1615919030339771,-2,-2,1,-2,-22,-10,3,3
1615919030361436,0,0,-3,0,14,-1,-10,-2
1615919030361436,-6,-2,-3,-5,-4,-2,-1,0
1615919030363433,1,-2,-3,-4,-19,-12,-10,-7
1615919030363433,-6,-2,-3,-4,0,15,-1,4
1615919030375596,2,-1,-2,2,-5,-25,10,0
1615919030375596,-5,0,7,4,36,23,-7,1
1615919030383893,-7,-5,-5,-2,-21,-1,-3,-4
1615919030383893,9,-1,0,2,-12,-9,-6,0
1615919030398920,-3,0,-7,-7,14,1,8,0
1615919030398920,-3,-1,-4,0,30,4,10,0
1615919030399920,6,-3,1,-1,-22,-2,-5,-1
1615919030399920,7,-1,-3,2,13,-3,-1,-1
1615919030421448,0,0,3,-2,-12,4,26,2
1615919030421448,-2,0,-1,0,1,-1,-5,1
1615919030422458,4,-2,-2,-2,1,-8,8,3
1615919030422458,-2,0,1,0,12,5,-4,-1
1615919030434577,-6,-3,-4,1,0,-6,5,-1
1615919030434577,8,1,2,-4,-18,-7,-4,-1
1615919030443802,-1,1,1,1,11,2,-1,1
1615919030443802,-4,-2,-2,-3,-26,-1,6,1
1615919030458922,-2,0,-1,3,25,2,-7,-1
1615919030458922,-5,-5,-4,-4,-1,-13,9,1
1615919030460919,-5,-1,2,-1,-8,0,-5,-7
1615919030460919,-3,0,1,1,17,-3,11,8
1615919030481911,4,-1,-2,-2,4,-2,-9,-4
1615919030481911,-2,-1,-1,2,-3,11,-8,-1
1615919030482794,1,1,-4,-10,-23,-15,-1,-3
1615919030482794,-5,0,8,6,14,11,15,-6
1615919030495067,15,1,-1,2,13,7,-11,5
1615919030495067,-24,-3,-1,-1,-30,0,9,-6
1615919030503918,-2,-1,-2,3,8,-4,-18,0
1615919030503918,-3,-1,-6,-6,-4,-11,31,1
1615919030517924,3,-1,1,-1,-46,-1,-13,-6
1615919030517924,12,-2,5,-2,-20,-15,-3,-1
1615919030519915,-2,-2,-1,5,32,11,3,1
1615919030519915,-3,-2,-6,-6,-27,-8,-6,0
1615919030541478,-2,-5,0,-1,25,0,4,-1
1615919030541478,1,2,-4,-2,-8,1,-3,1
1615919030542478,-4,-1,0,-1,-11,15,-4,0
1615919030542478,2,-2,1,0,12,-20,1,1
1615919030563939,-1,0,-1,1,13,-8,0,-6
1615919030563939,-1,-3,-4,2,-7,4,-7,5
1615919030565886,1,1,2,2,15,8,12,2
1615919030565886,5,1,-4,-1,9,19,-12,-5
1615919030578920,-30,-1,5,1,-9,-14,-8,-2
1615919030578920,-3,0,-6,2,36,0,-5,-3
1615919030579919,4,0,2,-2,-26,-2,6,2
1615919030579919,-4,-2,4,-1,-6,-3,-13,-8
1615919030601379,-4,-4,-9,-3,-9,7,11,1
1615919030601379,8,-2,0,0,5,2,2,-1
1615919030602379,-4,0,-2,-2,2,-14,-13,-7
1615919030602379,0,-2,-2,0,6,5,-4,0
1615919030623891,3,1,-1,-4,-32,-4,4,0
1615919030623891,-7,-1,-5,1,10,-2,-19,-3
1615919030624883,5,1,5,-1,-3,13,10,1
1615919030624883,-17,-5,-5,-4,-5,1,-11,-2
1615919030638905,4,2,-1,-1,6,-6,18,-1
1615919030638905,0,-3,-1,-4,-17,-1,-29,-3
1615919030639905,-10,-1,-3,0,33,-5,8,-1
1615919030639905,4,2,-1,3,-8,-1,-2,4
1615919030660936,0,-4,0,2,21,7,-2,2
1615919030660936,3,1,-2,-2,-27,1,7,-3
1615919030663928,2,-2,-3,-2,4,-12,8,2
1615919030663928,6,-3,3,1,-4,8,-19,-1
1615919030683893,0,0,-1,-3,-7,-5,0,-7
1615919030683893,-6,-3,-1,1,-4,-9,25,1
1615919030685370,7,-2,-4,-4,1,-3,-1,0
1615919030685370,3,1,-1,-1,-9,0,8,2
1615919030698200,2,0,4,1,9,4,-10,2
1615919030698200,-5,0,-3,-2,-1,-1,15,3
1615919030704822,1,0,12,4,-4,14,-20,-4
1615919030704822,-4,-2,-4,-2,9,-40,16,1
1615919030720781,7,1,-1,1,9,12,-43,0
1615919030720781,-3,-4,-8,-7,-6,-1,4,-2
1615919030722755,-5,-2,-2,3,14,5,4,2
1615919030722755,1,-2,-1,-2,-27,9,-10,-6
1615919030743907,-3,-1,0,0,6,3,17,5
1615919030743907,0,0,3,2,16,-8,-3,-5
1615919030745576,0,1,-3,-2,-21,-10,-16,-1
1615919030745576,-4,-3,-1,-4,31,14,8,-2
1615919030757908,3,0,-6,-2,-24,-7,10,-2
1615919030757908,1,1,5,0,0,0,-7,2
1615919030765112,-4,-3,-2,-2,-4,-8,4,-7
1615919030765112,5,1,-2,0,-3,-6,-13,3
1615919030781323,-11,-3,-2,-1,8,4,7,-4
1615919030781323,6,1,-1,-3,-12,0,-10,2
1615919030782840,7,0,-5,-3,-10,-1,11,-2
1615919030782840,1,0,3,1,-17,-2,-1,10
1615919030803823,1,-3,-3,-4,2,3,-9,-3
1615919030803823,-1,3,11,8,40,-9,1,-1
1615919030804820,1,-3,-1,-4,-28,-2,4,1
1615919030804820,-2,0,-2,-1,3,4,5,-1
1615919030817782,0,-1,-3,-3,-2,8,5,1
1615919030817782,-4,-3,-5,-4,7,-4,-1,-5
1615919030824862,-2,-3,-4,4,7,7,-2,5
1615919030824862,-3,0,3,-4,-1,-2,-7,-5
1615919030841468,-4,-3,-2,-1,-1,-6,-1,-1
1615919030841468,0,-2,-5,-9,-39,-1,-2,-1
1615919030842468,-3,1,0,3,27,-1,-13,-2
1615919030842468,-1,-2,-5,-3,-2,0,-6,-5
1615919030863897,1,0,0,-1,7,-5,11,2
1615919030863897,-4,-2,-3,-4,-13,10,4,-1
1615919030865892,-4,-1,-1,-2,9,-7,-5,1
1615919030865892,2,-1,0,3,3,2,13,-1
1615919030877859,1,3,3,2,5,-9,-46,-5
1615919030877859,-1,-1,-4,1,3,10,3,-2
1615919030884837,-2,1,2,0,-5,-13,-3,0
1615919030884837,-4,-1,-3,-4,2,4,2,-3
