timestamp,emg1,emg2,emg3,emg4,emg5,emg6,emg7,emg8
1615919037500805,-18,-1,0,-1,1,-3,-5,-3
1615919037500805,-1,-1,-9,-4,-9,-2,1,-1
1615919037502799,6,-2,2,1,3,-1,8,1
1615919037502799,-2,1,0,-2,-1,-5,-5,1
1615919037515834,1,-3,-3,-1,-9,5,-2,-1
1615919037515834,0,1,-8,-5,-2,-8,4,0
1615919037522815,-4,1,6,1,-3,0,-7,-1
1615919037522815,0,-2,-4,-7,-10,-10,2,-1
1615919037538798,-1,-5,0,1,7,-1,-4,-2
1615919037538798,2,1,0,6,16,9,-3,-1
1615919037539794,4,-2,-11,-10,-18,-7,-2,0
1615919037539794,-3,-1,4,4,0,7,1,-2
1615919037560802,5,-1,2,0,-7,-11,-5,0
1615919037560802,-5,-4,-5,-4,-5,0,3,-1
1615919037563797,17,1,-2,1,-9,0,-3,0
1615919037563797,-43,-2,-3,-3,-2,-2,-3,-3
1615919037575985,3,0,2,4,9,6,-1,0
1615919037575985,4,0,-2,-3,-2,-1,5,3
1615919037581975,3,-1,0,-2,-6,-8,-11,-1
1615919037581975,9,-1,-3,0,5,1,0,-2
1615919037598809,0,0,-4,0,1,0,4,-1
1615919037598809,-3,-2,7,-2,2,1,-4,-1
1615919037600812,-2,-1,0,1,5,-7,4,0
1615919037600812,-4,1,1,3,1,10,15,3
1615919037620945,-2,-1,-5,-8,-13,-7,-30,-3
1615919037620945,1,-4,-9,0,9,-7,0,-2
1615919037622940,-1,1,5,0,3,0,-2,-1
1615919037622940,-5,-2,5,0,3,6,1,-1
1615919037635930,-2,-1,-1,2,1,4,9,2
1615919037635930,21,1,-6,-6,-8,3,-6,0
1615919037641888,-46,-5,-2,1,-1,-13,-5,-6
1615919037641888,13,-2,5,-1,6,5,-3,0
1615919037659053,4,-1,-7,1,-1,0,5,1
1615919037659053,-4,0,1,-1,3,0,-3,-2
1615919037661049,4,2,2,1,-8,3,2,-2
1615919037661049,5,-4,-5,-5,-7,-3,-2,1
1615919037689603,-11,-2,0,-2,-9,-12,1,0
1615919037689603,0,1,-1,5,15,7,1,0
1615919037695953,7,0,0,0,2,5,1,1
1615919037695953,1,-1,-6,-7,-20,-6,2,0
1615919037696334,0,-3,-3,1,5,6,1,0
1615919037696334,-5,0,12,6,3,-6,1,-1
1615919037703864,1,0,-4,1,16,9,1,0
1615919037703864,3,0,-2,-2,-14,-13,-1,0
1615919037718392,-3,0,-3,0,3,4,4,-2
1615919037718392,28,1,0,-1,-2,1,-6,2
1615919037726370,-53,-5,-6,-2,-1,9,2,-5
1615919037726370,7,-3,-9,-1,-6,-3,1,-1
1615919037741653,4,1,4,-2,-6,0,0,1
1615919037741653,-11,-3,1,2,3,-2,-5,-4
1615919037742654,22,-2,1,0,8,3,-2,1
1615919037742654,7,2,1,-4,-7,-5,-6,-1
1615919037763957,-8,1,-5,-4,-1,-1,0,-4
1615919037763957,-10,0,-1,-2,-4,-2,-4,-1
1615919037765897,8,-1,1,1,7,0,4,2
1615919037765897,-13,-3,0,-2,-4,3,-4,-3
1615919037779212,6,-3,5,1,1,-6,-1,1
1615919037779212,-4,-2,-10,-5,-13,1,3,-1
1615919037780212,7,1,4,2,14,-2,-1,1
1615919037780212,4,0,-3,-2,1,2,4,-2
1615919037801691,2,1,7,1,7,6,-15,-2
1615919037801691,-7,-2,4,6,-1,-5,0,-2
1615919037803258,5,-1,-5,-6,-17,2,3,0
1615919037803258,-2,0,-3,-1,13,1,-10,0
1615919037814754,-2,-3,0,-1,1,1,11,1
1615919037814754,-6,-1,-8,-8,-17,-3,-1,-2
1615919037823731,25,-1,1,0,-8,3,-4,3
1615919037823731,-38,-1,1,0,0,1,0,-4
1615919037838686,-4,2,-5,-4,-5,-12,4,-2
1615919037838686,-4,0,0,1,11,7,-4,-1
1615919037840656,10,1,-5,1,-4,-10,6,2
1615919037840656,4,-4,-4,0,5,-3,-15,-3
1615919037861629,2,2,5,1,-6,-3,-1,-2
1615919037861629,-10,-5,-3,-6,-12,-2,-5,-4
1615919037862595,-3,0,-1,-3,-3,1,-2,-2
1615919037862595,10,0,4,3,-13,-6,6,1
1615919037875417,-1,-3,-6,0,15,0,3,-1
1615919037875417,23,0,1,0,-11,-2,1,3
1615919037883611,-43,-3,-8,-4,-11,-1,0,-6
1615919037883611,5,0,3,1,1,-6,-2,1
1615919037898620,2,-2,-6,-5,-8,1,6,1
1615919037898620,-1,-1,-9,-4,1,4,-1,1
1615919037899951,6,-2,-3,-2,5,-2,-5,-2
1615919037899951,1,-3,-5,-2,-7,-2,1,-2
1615919037920896,-8,-2,-1,-2,-6,0,-5,-3
1615919037920896,4,-1,3,3,14,-4,0,-2
1615919037922867,10,0,1,-3,-9,0,-4,1
1615919037922867,4,1,0,1,6,2,2,0
1615919037934911,-4,-3,-2,3,3,1,0,-3
1615919037934911,-1,-2,-5,-4,-6,-4,-3,-2
1615919037943999,3,0,4,2,11,2,1,0
1615919037943999,2,-3,-3,-5,-12,-5,-2,-1
1615919037966520,1,-1,-3,-3,3,-2,-1,1
1615919037966520,-8,-1,2,-1,-7,-4,0,0
1615919037972529,3,-2,-1,1,6,6,14,1
1615919037972529,-14,-2,-5,-4,-4,-7,-22,-5
1615919037981605,4,2,7,2,-4,-6,-2,-1
1615919037981605,-1,-3,-1,-2,9,1,0,0
1615919037982605,-3,-2,-5,-2,-6,-4,-4,-1
1615919037982605,9,3,6,1,9,14,7,2
1615919037995418,-3,-1,1,1,-7,-5,8,0
1615919037995418,-4,0,0,1,2,-7,-23,-3
1615919038003656,-2,-5,-1,0,-8,-5,-2,-1
1615919038003656,2,-2,-8,-6,-5,2,2,-2
1615919038018887,2,0,-3,-1,7,1,1,-1
1615919038018887,-13,1,6,2,4,4,9,0
1615919038019884,5,1,3,6,13,-1,-4,0
1615919038019884,-2,-2,1,3,1,-4,-2,-1
1615919038041708,-3,-4,-5,-3,-9,6,-4,-2
1615919038041708,2,-4,-3,-2,3,-1,2,-1
1615919038042975,1,2,-4,-5,-5,-3,-4,-1
1615919038042975,-4,1,5,3,6,-1,0,-1
1615919038054641,5,-1,-4,-5,-2,-3,-8,0
1615919038054641,-1,1,9,7,-3,1,6,1
1615919038071599,18,-4,-3,-8,-22,-7,2,1
1615919038071599,-33,-4,-2,-2,3,4,0,-2
1615919038078580,7,2,-6,-1,-5,-5,1,2
1615919038078580,-1,-2,-3,-3,0,-6,0,-1
1615919038080575,3,2,3,2,0,-3,-6,0
1615919038080575,10,-3,-6,-1,5,1,9,2
1615919038101556,-5,1,2,-2,2,11,-18,-2
1615919038101556,-6,0,0,0,15,-1,5,-1
1615919038102552,-2,0,0,-1,-9,-1,-4,0
1615919038102552,-1,-1,-1,6,15,-1,-4,-1
1615919038123582,0,-3,4,-4,-15,-1,7,1
1615919038123582,5,-1,-4,-1,-1,-2,0,-1
1615919038125572,-8,0,1,0,11,6,-5,-4
1615919038125572,3,-2,-4,-5,-21,-3,7,-1
1615919038139501,8,-2,2,2,8,-9,1,-1
1615919038139501,-20,0,-5,-1,-9,7,-1,-2
1615919038145378,-6,-3,0,-5,-14,-12,0,-3
1615919038145378,3,0,1,2,3,5,-3,0
1615919038161749,-2,-2,-3,2,0,0,-2,-1
1615919038161749,2,-3,-3,-5,-5,-1,-2,-2
1615919038163745,-7,-1,-4,3,7,2,1,-2
1615919038163745,5,-1,0,-3,-4,-8,0,-1
1615919038183744,-4,-1,5,-1,2,2,-2,-3
1615919038183744,3,-1,-2,2,-2,-1,1,1
1615919038185739,-1,0,6,2,11,-7,-1,0
1615919038185739,26,0,0,-4,-24,-5,-2,1
1615919038198753,-16,-1,-3,0,6,2,0,-1
1615919038198753,1,1,2,3,10,0,4,1
1615919038200079,-2,-3,-2,-5,-9,0,-2,0
1615919038200079,-1,-1,0,1,14,4,4,0
1615919038220904,7,2,-3,0,-5,-5,-20,-1
1615919038220904,7,0,-3,-1,2,0,13,2
1615919038222875,-14,-1,-3,-3,-9,-1,-4,0
1615919038222875,-8,0,0,2,5,2,-4,-2
1615919038243985,-5,-5,-3,-2,1,0,4,-3
1615919038243985,1,-1,-5,-1,1,2,-1,-2
1615919038251802,5,-1,0,-2,-9,1,1,0
1615919038251802,-1,1,-5,2,2,-4,0,-2
1615919038258553,-9,-2,-3,-2,6,4,1,-1
1615919038258553,3,-4,-3,3,-8,-5,-7,-2
1615919038264864,2,1,5,-5,1,-2,-2,-1
1615919038264864,-4,0,2,3,5,-3,-4,-2
1615919038281798,10,3,1,-2,-10,0,3,2
1615919038281798,-6,-4,-5,-6,3,-2,-3,-3
1615919038282798,-4,-4,-7,-1,-7,4,0,-3
1615919038282798,6,-1,9,0,-6,-7,-1,0
1615919038303884,-4,2,-2,1,1,-3,5,0
1615919038303884,4,-1,2,-3,-1,-2,8,1
1615919038305879,-1,-1,-4,-2,-4,-2,-27,-4
1615919038305879,2,0,-3,-1,-1,-1,-1,1
1615919038317869,-2,-3,-3,-2,-9,1,2,-2
1615919038317869,5,3,0,-1,-3,6,-1,1
1615919038324848,15,2,3,1,1,-15,7,2
1615919038324848,-38,-4,-1,-1,1,5,-5,-5
1615919038356721,-1,-2,-6,-3,-2,-5,-2,1
1615919038356721,3,-1,8,0,-13,-1,6,-2
1615919038358428,5,-3,-2,2,10,3,1,-1
1615919038358428,6,-3,-5,-3,-6,-4,-4,-1
1615919038363417,-2,-1,0,-3,-9,0,3,0
1615919038363417,-8,-2,-5,-4,3,-5,-6,-1
1615919038365383,-6,-2,2,2,0,6,6,0
1615919038365383,1,-4,-4,-2,7,-3,-3,0
1615919038377811,0,-2,4,2,0,3,-1,-3
1615919038377811,2,2,-6,0,2,-8,-7,0
1615919038392444,-8,-2,-6,3,-1,-2,-1,-2
1615919038392444,10,5,7,-2,-1,-1,0,1
1615919038401400,-2,-3,1,0,4,5,8,0
1615919038401400,1,0,0,-4,-1,5,-3,0
1615919038402397,16,-2,-3,-4,-11,-2,2,1
1615919038402397,-12,-2,-1,1,2,-4,-2,-3
1615919038423396,1,-2,-5,-7,-13,-7,-4,-1
1615919038423396,3,0,-1,4,5,3,2,0
1615919038425390,5,0,1,-6,1,-1,4,1
1615919038425390,4,-3,0,-1,-4,-4,-1,-1
1615919038438390,-5,-1,0,0,6,0,-2,-3
1615919038438390,2,1,0,-1,2,-6,-9,-2
1615919038445281,-6,0,2,1,4,9,2,-1
1615919038445281,1,-4,-3,-2,6,-1,8,0
1615919038461269,0,0,-1,2,-2,-1,-16,-1
1615919038461269,0,-2,2,2,2,0,-2,-2
1615919038463267,-20,-4,-6,2,-2,-2,-3,-4
1615919038463267,-1,1,0,-2,-3,2,0,0
1615919038484189,3,0,-2,2,12,0,2,-2
1615919038484189,-4,-1,2,-5,-11,-12,-3,1
1615919038485179,-8,-4,-4,-6,-8,-1,0,0
1615919038485179,6,-1,-4,1,13,-4,-4,1
1615919038498144,-4,-1,-3,2,3,6,1,0
1615919038498144,-13,-6,-4,-4,-19,-1,5,-2
1615919038505125,10,0,7,3,11,-4,-31,-1
1615919038505125,-22,2,0,-2,1,3,2,-1
1615919038522080,5,-1,-1,-6,-11,-12,-1,-2
1615919038522080,0,-3,-3,1,2,10,4,-1
1615919038523078,8,1,-2,-3,-9,0,6,1
1615919038523078,-9,-1,-3,1,-5,-4,-3,-3
1615919038544749,8,-2,4,0,-3,1,2,1
1615919038544749,-16,1,-3,-5,-14,-8,-7,-3
1615919038545723,4,-2,-2,1,2,3,3,0
1615919038545723,8,-4,-4,-3,8,4,-3,1
1615919038558688,-2,-2,2,-2,-8,1,5,2
1615919038558688,2,0,0,1,3,-8,-7,-1
1615919038566667,-7,-1,-2,-1,0,6,17,-1
1615919038566667,2,-2,-3,-1,-2,-1,-14,-3
1615919038581626,-1,-1,2,-2,5,-12,0,-1
1615919038581626,-22,-2,-3,-2,3,6,-2,0
1615919038582624,2,-1,-3,-3,-9,-3,0,0
1615919038582624,6,1,2,2,0,-1,6,1
1615919038603592,-1,0,-2,1,3,9,7,1
1615919038603592,3,-2,6,1,11,-8,-24,-1
1615919038605588,1,0,-2,-2,-5,4,5,0
1615919038605588,1,-3,-6,1,2,-1,0,-1
1615919038626598,5,1,-1,1,1,1,3,-2
1615919038626598,7,-4,-6,-3,0,-5,6,-1
1615919038627596,-22,-3,-3,-1,4,-1,-2,-5
1615919038627596,12,0,-1,-6,-9,-7,-5,-1
1615919038641558,-5,-1,-4,2,1,-5,-5,-1
1615919038641558,-1,-3,-2,-5,-9,1,2,0
1615919038642556,5,2,7,2,3,5,-1,0
1615919038642556,5,1,-1,1,3,-2,5,0
1615919038664122,-30,-4,-1,-8,-25,-1,-3,-5
1615919038664122,4,2,-3,-2,2,2,2,0
1615919038666116,4,0,2,2,7,-1,1,1
1615919038666116,-5,-1,-1,-3,-22,-2,1,-2
1615919038677087,-2,-1,4,5,9,1,-4,-1
1615919038677087,13,1,-2,-2,-5,15,3,0
1615919038686096,-8,0,10,1,-5,-9,7,-1
1615919038686096,5,0,2,-4,-11,-4,-24,-3
1615919038701364,-7,-2,-10,-4,3,-3,4,-2
1615919038701364,4,1,1,-2,1,-6,-9,-1
1615919038703358,1,0,-2,2,12,1,-2,-2
1615919038703358,-4,-1,-4,-4,-8,1,8,0
1615919038731440,7,2,3,1,2,5,-3,0
1615919038731440,-9,-1,3,7,9,5,1,-3
1615919038732440,-4,-2,-6,-7,-7,-12,-1,-1
1615919038732440,1,0,0,-4,-14,-1,2,-1
1615919038737908,5,-2,-7,0,15,-3,-4,0
1615919038737908,-19,0,1,-6,-26,-2,9,-1
1615919038746120,3,-2,-5,-1,4,2,-4,-2
1615919038746120,-2,-4,-6,-2,-3,-2,2,-3
1615919038761746,2,2,6,5,5,2,-1,0
1615919038761746,7,-3,-3,-1,2,-4,0,-1
1615919038763743,-5,-5,-9,-5,-4,-3,-4,0
1615919038763743,-3,2,7,0,9,0,0,0
1615919038783734,11,-1,2,2,4,2,1,0
1615919038783734,0,-2,2,0,-4,-6,0,-2
1615919038785729,-8,-1,-7,-1,-1,-3,8,-2
1615919038785729,11,2,7,1,1,6,-23,-2
1615919038806724,1,0,0,-2,6,-6,-2,-1
1615919038806724,-2,-2,-2,-2,8,2,2,0
1615919038807721,-5,-1,3,1,-9,0,-1,-1
1615919038807721,19,0,-3,-1,-3,2,12,2
1615919038820686,-43,-3,-1,-2,-4,-10,-8,-6
1615919038820686,2,2,-3,-4,3,3,-1,1
1615919038822682,4,-1,3,5,10,0,-1,0
1615919038822682,-1,0,-2,1,10,2,6,0
1615919038843841,2,-1,-2,-2,-7,-1,1,-2
1615919038843841,6,-2,3,1,-2,-8,-6,-1
1615919038845857,1,-2,-8,-5,-13,-2,-2,1
1615919038845857,-17,1,6,4,17,5,4,-3
1615919038857805,6,-1,6,6,-1,-1,-1,1
1615919038857805,-11,-1,-6,-8,-8,-3,1,-3
1615919038872363,12,2,2,-1,-5,-3,-4,-1
1615919038872363,0,-1,-3,1,-8,-3,2,3
1615919038881343,-13,-3,-5,-4,4,5,6,-2
1615919038881343,6,-3,0,5,2,2,0,1
1615919038883301,1,2,3,-7,-21,-9,2,-1
1615919038883301,-8,-3,-1,-3,3,-3,-3,-2
1615919038904265,13,-2,-2,-5,-10,-1,0,0
1615919038904265,-1,-2,-3,4,14,-3,-3,0
1615919038905237,-8,1,-1,0,4,9,-2,-2
1615919038905237,2,-3,-1,-1,-3,-4,5,1
1615919038917231,7,-1,-4,-1,0,5,0,1
1615919038917231,-5,-4,-8,-6,-19,-7,-5,-2
1615919038926180,3,0,-1,3,6,2,5,2
1615919038926180,-5,-3,-3,-4,2,1,0,0
1615919038941778,2,0,-2,-3,1,-12,-9,-1
1615919038941778,-3,-1,-6,0,5,6,4,-1
1615919038942778,5,3,8,0,1,-3,-6,-1
1615919038942778,-23,-2,3,4,10,4,1,-2
1615919038963928,8,-2,-3,-3,-6,2,7,3
1615919038963928,-24,-1,1,1,-6,-5,5,-7
1615919038964902,1,-2,0,5,18,0,-21,-4
1615919038964902,5,1,-10,-6,-16,5,0,-1
1615919038977924,-2,0,3,-7,-21,-8,-6,-1
1615919038977924,4,-1,1,-7,-22,-7,4,1
1615919038986002,-5,-3,-3,2,7,3,5,-1
1615919038986002,-4,-2,0,1,4,-4,-1,0
1615919039007467,4,-1,-2,2,4,3,-3,-1
1615919039007467,7,3,4,1,-5,-1,3,0
1615919039016445,-3,-1,-1,-3,0,-1,0,-2
1615919039016445,6,-3,-8,2,-5,-2,-2,0
1615919039023427,0,-2,-4,-2,14,5,0,-4
1615919039023427,29,3,6,-5,-11,-6,-4,4
1615919039025421,-41,-5,-4,-3,-6,-4,-2,-4
1615919039025421,7,1,2,4,1,3,2,0
1615919039037867,-2,-1,-3,4,7,-10,-2,-1
1615919039037867,4,0,5,2,11,7,-3,0
1615919039046106,9,-2,-4,-9,-26,-1,0,1
1615919039046106,-9,-4,-2,-7,-10,-3,1,-3
1615919039061040,4,2,1,0,2,-1,-2,1
1615919039061040,-7,-2,-5,0,15,6,7,-2
1615919039064032,2,0,0,0,-2,-1,-26,-1
1615919039064032,-6,0,0,-3,-4,-11,0,0
1615919039084040,1,-1,2,1,-2,7,-3,1
1615919039084040,-4,-2,-5,-1,4,-5,7,-1
1615919039086014,6,-4,0,3,11,2,-6,-1
1615919039086014,-4,0,1,-3,-5,-1,-7,-2
1615919039113838,-1,0,-4,0,-1,1,1,-1
1615919039113838,-2,-2,-3,-3,1,-5,-5,0
1615919039115815,14,-4,-2,0,0,0,7,1
1615919039115815,-32,-3,-3,-4,-4,-6,-5,-5
1615919039120830,-5,-2,0,-3,-10,0,3,-1
1615919039120830,-2,0,2,-3,-11,8,-5,0
1615919039122830,4,1,1,1,8,-8,4,1
1615919039122830,6,-3,1,3,14,-4,-3,-2
1615919039143740,-1,0,0,0,-7,1,0,1
1615919039143740,-5,-1,-2,-2,-3,3,-6,-3
1615919039145763,-6,-3,-3,-3,3,3,16,-1
1615919039145763,17,4,2,1,-1,-1,-27,-2
1615919039165877,-6,-3,-7,0,9,3,4,-2
1615919039165877,2,1,13,4,0,-4,-5,-1
1615919039167846,1,1,-6,-2,-6,-5,4,-1
1615919039167846,12,-4,2,0,0,0,9,0
1615919039181809,-30,-1,0,0,-2,-5,-4,-3
1615919039181809,-2,-2,-4,-1,0,-1,-2,1
1615919039183804,-4,0,1,3,0,1,-1,-3
1615919039183804,7,1,-5,-4,-15,-3,5,0
1615919039203972,8,0,10,0,-3,2,-4,0
1615919039203972,4,0,-3,1,-1,0,1,-1
1615919039205041,-29,-2,0,1,0,-2,3,-3
1615919039205041,4,-1,-2,-5,0,6,2,0
1615919039226077,4,1,-2,0,4,1,0,-1
1615919039226077,-5,0,-2,1,-1,-5,-4,-1
1615919039227982,8,-1,-1,-1,1,1,1,1
1615919039227982,-3,-2,2,1,1,-3,1,-1
1615919039241109,0,-2,-2,-6,-12,1,-2,-1
1615919039241109,0,-3,-5,0,8,1,3,0
1615919039247909,17,-1,-5,1,2,-1,-1,1
1615919039247909,-9,1,7,5,5,-3,4,0
1615919039263908,9,0,-2,-6,0,-1,-2,0
1615919039263908,-4,-1,-3,0,-10,-2,-4,-2
1615919039265904,5,-1,-3,-3,0,7,-1,0
1615919039265904,-3,0,-4,0,1,-3,-2,0
1615919039285904,2,-1,-2,-2,13,-3,2,-1
1615919039285904,3,0,9,7,7,5,6,0
1615919039287895,-7,-4,-3,-7,-12,-3,-22,-3
1615919039287895,9,0,-4,1,4,2,2,-1
1615919039301118,-16,0,2,1,-3,-5,-2,0
1615919039301118,-4,0,-6,-6,-5,-3,-1,0
1615919039315084,2,1,2,1,11,6,6,-2
1615919039315084,-3,-1,-5,0,-3,5,-3,-2
1615919039324084,7,-3,0,-1,-8,-12,-2,0
1615919039324084,-2,2,3,-1,5,-3,-2,0
1615919039325057,-3,-1,4,1,-9,-3,2,-1
1615919039325057,-1,-1,-2,-2,8,1,3,0
1615919039362826,17,-1,-7,-2,-6,3,2,-2
1615919039362826,-14,-4,-4,-2,-1,-3,1,-3
1615919039364827,1,-2,3,0,7,-4,-3,-1
1615919039364827,-3,0,2,-3,-8,0,3,1
1615919039365828,2,-3,-6,1,13,4,-4,-1
1615919039365828,8,-1,8,-2,-6,3,2,0
1615919039368820,5,2,-5,-1,-3,-5,12,0
1615919039368820,-10,0,5,3,-7,-1,-15,-2
1615919039399020,-9,-1,-1,-4,-10,-1,3,0
1615919039399020,2,-2,-4,0,9,0,-4,-1
1615919039400017,-4,-1,-3,1,5,5,10,2
1615919039400017,17,-3,-1,-1,-10,-7,-1,1
1615919039406816,-40,0,4,0,-2,-6,-9,-6
1615919039406816,0,0,-4,0,12,5,-1,2
1615919039407815,4,0,-1,-4,-5,-3,-4,0
1615919039407815,-2,-1,10,4,2,3,3,-1
1615919039429302,5,0,-1,0,-1,-7,-3,0
1615919039429302,3,-3,-4,-2,2,4,-3,-1
1615919039430302,-12,0,-1,-2,-2,-2,0,-1
1615919039430302,-2,-4,-3,2,10,4,0,0
1615919039444006,7,1,-3,-7,-22,6,15,0
1615919039444006,-6,1,2,0,-7,-14,-20,-3
1615919039445089,3,-4,-5,-2,-6,7,-3,-2
1615919039445089,3,-2,-5,-4,3,-5,4,-1
1615919039465890,2,0,4,6,7,0,-3,1
1615919039465890,-2,-4,-2,0,-2,-4,-1,-2
1615919039467856,2,3,4,-1,-6,0,7,-2
1615919039467856,-4,-2,-6,-5,-12,-1,-12,-3
1615919039480909,-20,-1,1,5,16,1,4,-1
1615919039480909,4,1,1,-3,-12,-6,-1,-2
1615919039487922,-4,0,-4,1,4,-1,-5,1
1615919039487922,6,-2,-3,-2,2,3,6,-2
1615919039503952,18,3,6,-1,0,2,-2,0
1615919039503952,-11,-3,-6,1,6,1,-1,-2
1615919039505125,4,1,2,2,-4,-7,-7,-1
1615919039505125,-8,-4,-10,-11,-17,-8,0,-2
1615919039526798,4,-2,-7,0,-11,-2,-4,-2
1615919039526798,-2,-2,-4,-7,-15,2,2,-1
1615919039527798,-3,-2,-1,2,9,10,6,-1
1615919039527798,-5,2,5,3,-4,0,9,1
1615919039541151,12,-1,-6,-6,-5,-13,-21,-1
1615919039541151,-23,-2,0,0,8,7,2,-2
1615919039547927,3,2,-4,-1,-9,0,-5,0
1615919039547927,-2,-4,-6,-7,-11,-5,5,-3
1615919039563520,-4,-6,-2,-1,0,2,-2,-2
1615919039563520,13,3,7,3,11,-1,1,2
1615919039565417,-6,-4,-3,0,5,-1,-4,0
1615919039565417,-5,1,0,-1,1,3,0,1
1615919039586686,5,-1,-4,-3,-2,-1,0,-3
1615919039586686,6,-3,1,6,16,5,0,0
1615919039587685,-9,-1,-8,-10,-30,-10,0,-2
1615919039587685,3,1,5,8,16,-4,-6,0
1615919039599503,1,0,-2,-1,0,3,11,-1
1615919039599503,24,-2,-4,-3,0,-4,-6,2
1615919039608852,-20,-2,-2,-3,7,3,0,-3
1615919039608852,3,0,-1,-1,-3,0,2,-2
1615919039631795,-10,-1,0,-1,1,3,-1,-1
1615919039631795,9,0,-3,-1,-4,0,5,0
1615919039633789,-8,-4,4,1,5,-10,-2,-2
1615919039633789,-2,-2,-1,-2,0,3,0,-1
1615919039646767,4,-1,-3,1,2,1,4,0
1615919039646767,-18,0,2,0,-4,7,2,-1
1615919039647766,11,-1,2,-1,-6,-8,-7,1
1615919039647766,-8,-1,-2,2,12,0,3,-1
1615919039668908,-3,-2,2,-3,-27,0,-4,-2
1615919039668908,-1,0,-7,0,9,-8,-3,-1
1615919039669915,2,0,0,0,6,7,0,-1
1615919039669915,0,0,3,1,-5,-11,-6,1
1615919039683430,5,-2,-4,1,15,14,2,3
1615919039683430,1,3,6,-7,-28,-10,-3,-1
1615919039685424,-2,0,1,2,1,0,1,-1
1615919039685424,7,1,-3,1,-4,2,-2,0
1615919039706808,-1,-1,1,1,14,1,-4,0
1615919039706808,-2,-1,-2,-1,-9,4,5,0
1615919039707809,-6,2,3,4,6,-5,5,0
1615919039707809,0,0,-4,-8,-23,7,-2,-1
1615919039719801,-5,-3,-3,-1,-1,-7,-3,-1
1615919039719801,-1,-2,-3,-1,2,4,12,-1
1615919039736779,7,-1,5,1,-5,2,-12,-2
1615919039736779,2,-1,-4,1,13,-2,3,0
1615919039743632,-34,1,-1,-2,-5,-3,1,-2
1615919039743632,7,0,-4,-5,-15,-6,-4,-1
1615919039745976,0,-2,-4,2,7,-3,2,2
1615919039745976,-4,0,2,-2,-1,-3,-6,-1
1615919039767084,13,2,4,-3,-20,-5,-2,0
1615919039767084,-3,-2,-2,5,14,5,-1,0
1615919039768081,-10,-3,-1,-6,-14,0,-3,-5
1615919039768081,10,2,-3,3,10,7,-3,1
1615919039780393,3,0,5,0,-6,-7,-3,-2
1615919039780393,-4,-1,1,0,13,1,0,2
1615919039788758,3,0,-1,-3,-6,4,0,-1
1615919039788758,0,-4,-1,-4,-3,-8,-1,-2
1615919039803971,5,-3,-6,2,6,4,-1,-2
1615919039803971,-7,-1,-5,-6,-8,-8,-1,-1
1615919039805940,27,0,-2,-1,7,-4,-1,4
1615919039805940,-23,-2,6,-4,-13,-2,-4,-3
1615919039826785,2,0,1,0,-1,-1,-2,-1
1615919039826785,0,-3,-5,-1,-4,1,6,-1
1615919039827785,5,-2,5,5,6,-5,-25,-2
1615919039827785,-3,-2,1,-1,-13,-4,2,-1
1615919039840483,-5,0,1,-1,10,-1,-5,-2
1615919039840483,5,1,3,0,-3,-4,2,0
1615919039848900,-7,-2,-7,-3,7,2,10,-2
1615919039848900,-1,1,-1,2,2,8,-9,-1
1615919039863985,-9,-2,-3,-1,4,-13,-3,-1
1615919039863985,4,1,5,-1,-7,2,-5,-2
1615919039865891,-6,-3,-5,-1,3,-1,2,0
1615919039865891,3,0,-2,-4,1,1,2,-2
1615919039886028,17,0,-4,3,3,5,5,2
1615919039886028,-33,-2,-6,2,13,0,-6,-4
1615919039888018,-2,-1,6,-5,-30,-3,-1,-1
1615919039888018,2,-2,-1,1,5,1,9,0
1615919039909224,2,-2,-2,-2,6,-7,-31,-2
1615919039909224,2,-4,-4,-1,-9,-1,-2,-1
1615919039910224,-2,4,2,2,16,7,3,1
1615919039910224,-4,-4,2,-4,-10,-7,0,1
1615919039923922,7,2,-1,0,0,1,8,0
1615919039923922,-1,-1,1,0,-2,1,-9,0
1615919039925978,-3,-3,-5,1,10,3,2,-1
1615919039925978,1,-1,-4,-6,-8,-5,0,0
1615919039947261,-3,-2,-4,2,5,1,5,0
1615919039947261,-7,-3,-1,-3,-7,0,-5,-3
1615919039948032,6,1,-1,-2,-3,3,5,-1
1615919039948032,-1,-1,-2,4,15,-20,-7,1
1615919039960479,20,-1,5,-3,-16,8,5,1
1615919039960479,-26,-1,-2,1,15,0,1,-3
1615919039969457,5,0,0,-3,-6,1,-2,0
1615919039969457,8,-2,-2,2,9,3,1,-1
1615919039983550,0,-1,-4,-3,3,-2,-3,0
1615919039983550,14,-3,-2,-1,-4,0,-2,-1
1615919039985546,-5,-1,-8,-3,-4,-6,1,-3
1615919039985546,0,1,3,1,1,3,-4,1
1615919040013889,-10,-3,-2,-1,5,2,5,-2
1615919040013889,6,-2,0,0,2,0,5,0
1615919040015858,-4,1,-2,-4,-17,-13,-7,-4
1615919040015858,0,-2,-4,-2,-1,-2,1,-2
1615919040029209,-8,-1,-2,-4,-5,-1,9,-2
1615919040029209,11,-3,-4,-1,-9,0,-1,0
1615919040030208,-34,-3,3,-2,0,0,-1,-4
1615919040030208,1,0,3,5,1,3,3,-1
1615919040043843,-10,1,0,1,13,0,-1,-3
1615919040043843,4,0,1,-6,-24,-7,4,-1
1615919040045823,5,-4,-3,2,20,-2,2,-1
1615919040045823,5,2,-7,-4,-5,3,-4,0
1615919040066763,-6,0,7,1,-3,-6,0,0
1615919040066763,6,-1,-2,3,7,2,0,1
1615919040067760,-1,-4,-10,-7,-14,-8,-5,-1
1615919040067760,1,3,13,6,7,2,-3,0
1615919040089335,0,-1,-4,2,1,7,0,-2
1615919040089335,-1,1,-1,-9,-8,0,1,1
1615919040090976,8,2,2,4,-2,-3,0,1
1615919040090976,-7,-2,-2,-1,3,3,5,-2
1615919040103951,0,-2,0,-2,-4,-4,6,0
1615919040103951,14,-1,4,1,0,-6,-16,-1
1615919040105154,-23,-1,-1,-3,-3,5,3,-1
1615919040105154,-6,-1,-5,2,12,-1,-1,-3
1615919040126765,6,-3,0,-7,-14,-1,6,2
1615919040126765,-9,0,-4,2,1,-1,2,-4
1615919040127766,12,-1,0,-4,-15,0,-4,2
1615919040127766,-5,-1,-5,-1,2,1,-1,-2
1615919040149241,3,0,1,0,-2,-1,-4,2
1615919040149241,-4,-2,1,-4,2,-1,-1,0
1615919040150237,2,1,-7,4,9,-1,3,1
1615919040150237,-5,-3,-2,-8,-27,-1,-2,-1
1615919040162854,0,1,1,0,3,-4,-6,0
1615919040162854,-3,3,9,1,-11,0,-3,-2
1615919040169858,5,-3,-2,4,12,3,4,1
1615919040169858,4,-1,3,2,13,6,1,1
1615919040186848,-9,-1,-4,-2,-6,1,-5,-4
1615919040186848,-1,-1,-2,-1,7,-9,11,1
1615919040192401,5,3,2,-2,-8,0,-5,-3
1615919040192401,-5,-3,-4,1,6,-1,0,-2
1615919040208401,-4,-2,-3,-3,-5,6,0,-2
1615919040208401,8,1,0,0,9,0,-2,0
1615919040210397,-4,-1,-2,-5,-12,-10,3,-2
1615919040210397,8,-2,-4,1,2,0,-3,0
1615919040223363,-5,-1,1,-3,-21,-8,-5,-1
1615919040223363,0,-4,-10,-3,2,2,2,-1
1615919040230377,4,1,6,2,5,4,-4,-2
1615919040230377,-8,-2,1,-2,-3,-11,4,-1
1615919040246785,1,-2,-2,2,8,1,-18,-2
1615919040246785,-7,-1,-2,0,-4,-8,-5,-2
1615919040248347,1,-4,-4,-5,-14,2,-3,-1
1615919040248347,-4,4,7,4,-2,4,-3,-1
1615919040268892,5,-2,-5,-1,2,-7,6,-3
1615919040268892,-4,-5,-6,-4,-15,5,-2,-2
1615919040269889,-7,-2,-3,-6,-11,-8,-7,-3
1615919040269889,11,2,-5,-1,0,-4,7,2
1615919040291811,-2,1,1,-1,3,-5,-5,0
1615919040291811,-3,1,1,2,18,1,-2,0
1615919040292792,-10,-4,-3,-5,-25,-5,11,0
1615919040292792,2,-2,-3,-8,-11,-2,-18,-3
1615919040306802,2,1,4,4,8,-3,3,-1
1615919040306802,-3,-2,2,2,8,3,2,0
1615919040308042,-10,0,5,1,5,6,0,-1
1615919040308042,18,-2,-4,0,1,-2,4,0
1615919040329304,-30,-2,0,-4,-11,1,-1,-4
1615919040329304,6,-3,0,2,2,-8,-7,-2
1615919040330304,6,-1,0,-1,-4,9,4,1
1615919040330304,-4,-3,0,-5,-10,-7,-4,-2
1615919040342912,9,-1,-4,1,12,0,-1,0
1615919040342912,-1,1,-3,-2,-5,-1,3,0
1615919040350499,1,-1,-1,3,3,-3,2,-2
1615919040350499,-13,-3,-7,-13,-4,-3,-3,-2
1615919040365901,11,-2,0,6,2,2,3,3
1615919040365901,-4,1,5,-2,0,1,-6,-2
1615919040372907,3,-2,-8,3,16,4,1,1
1615919040372907,-5,-2,3,4,6,5,9,0
1615919040405103,-7,-1,-3,-1,-9,-8,-27,-3
1615919040405103,7,1,0,-1,-2,3,3,-1
1615919040407100,16,1,0,-5,-10,-1,-5,-1
1615919040407100,-33,-4,-5,0,-6,0,1,-4
1615919040407100,6,1,-5,-3,3,-2,4,0
1615919040407100,-4,-2,0,6,11,-2,-6,-2
1615919040411121,-2,-1,-1,-5,-3,1,-2,0
1615919040411121,6,2,-2,0,6,6,-4,-1
1615919040427413,-4,-4,2,-1,-18,-12,8,1
1615919040427413,3,1,-2,-5,4,3,1,1
1615919040428311,0,3,7,3,9,-1,-1,-1
1615919040428311,3,-3,0,1,-1,-3,-4,0
1615919040448304,1,3,-2,1,8,11,4,-2
1615919040448304,-2,-3,-2,-10,-27,-11,1,-4
1615919040450122,-5,-2,-4,4,6,-2,-7,-1
1615919040450122,0,2,5,3,0,4,-3,1
1615919040463543,2,-2,-3,-3,5,2,9,0
1615919040463543,-3,-1,-1,2,1,6,1,-1
1615919040469522,7,1,-3,-6,-15,-6,-6,1
1615919040469522,7,2,2,-2,-4,3,-2,0
1615919040486599,0,-5,-5,-5,-14,-4,0,-2
1615919040486599,-6,1,2,1,4,1,6,1
1615919040487695,0,-5,7,8,10,0,3,-2
1615919040487695,2,2,-4,1,2,-4,-2,0
1615919040508683,-2,-2,2,-1,2,1,4,1
1615919040508683,3,-1,-3,-5,-7,1,-4,-1
1615919040510723,-7,1,-5,2,16,0,-6,-2
1615919040510723,-7,-2,-1,-7,-18,-10,0,-4
1615919040522675,21,3,3,-1,-2,-10,-2,0
1615919040522675,-19,-2,-1,3,12,5,-4,-4
1615919040531753,2,-2,0,-7,-8,-2,-2,-1
1615919040531753,-6,-3,0,3,5,3,4,-2
1615919040546835,5,-1,-5,-5,-16,1,-5,1
1615919040546835,3,-1,-3,1,-1,-12,-5,-2
1615919040547757,1,-2,2,5,11,-2,2,-2
1615919040547757,-17,-2,-1,-1,2,1,8,0
1615919040569821,-12,-1,9,1,2,-2,-30,-3
1615919040569821,7,1,-3,0,-4,1,3,2
1615919040570819,-8,1,0,-3,0,1,4,-2
1615919040570819,6,-2,-6,3,14,1,-3,2
1615919040582783,-8,-2,-3,2,9,3,17,-3
1615919040582783,-7,-2,3,-4,-15,-2,-12,-2
1615919040591778,-5,0,-6,0,6,-10,-1,0
1615919040591778,4,-2,-2,0,0,2,-2,-1
1615919040606743,-5,0,-4,-2,10,1,4,-1
1615919040606743,4,1,8,3,-5,0,-2,-2
1615919040612727,6,1,-4,-3,1,2,4,1
1615919040612727,3,-2,-2,-4,-8,-2,-10,-2
1615919040629339,-7,-2,-3,-1,-1,-1,4,-1
1615919040629339,5,-4,-6,-3,-1,2,12,-1
1615919040630338,-4,-1,0,3,3,-9,-25,-2
1615919040630338,-2,3,3,-4,-17,-7,-1,-1
1615919040642891,10,0,-1,-3,0,2,-3,-1
1615919040642891,-5,-2,-4,-1,6,3,4,0
1615919040651188,1,-5,-1,-2,-4,1,5,-1
1615919040651188,8,2,-5,2,13,3,0,2
1615919040673971,-5,-6,-3,2,-10,-2,1,-5
1615919040673971,-3,1,2,-1,0,2,-2,-1
1615919040675974,-6,1,-3,-2,1,3,0,-1
1615919040675974,5,-3,-3,0,1,-4,-2,-1
1615919040689303,-13,0,1,2,8,-1,0,0
1615919040689303,1,0,-5,-3,-3,0,-1,1
1615919040691028,1,-4,0,-3,-11,-6,-5,-2
1615919040691028,1,-1,2,0,-3,3,2,1
1615919040702131,0,-2,-3,-1,4,-11,-2,-1
1615919040702131,0,-1,-1,2,5,5,-2,-1
1615919040718572,-7,-1,-3,-7,-22,0,-1,-1
1615919040718572,3,-2,-1,2,9,1,1,-3
1615919040726602,2,-1,0,1,11,4,1,2
1615919040726602,-2,-2,-2,-2,-22,-3,5,-1
1615919040727600,2,2,-1,2,5,4,10,2
1615919040727600,-5,0,-4,-8,-18,-4,-18,-4
1615919040749547,1,-2,-2,-1,-12,-4,-3,0
1615919040749547,-5,-3,-3,0,15,2,0,-2
1615919040750545,9,-2,0,-2,-9,-3,6,0
1615919040750545,3,-2,-4,-1,3,6,4,0
1615919040762961,11,0,-2,-3,-2,5,-1,0
1615919040762961,-33,-5,-4,-1,-1,-8,-6,-2
1615919040771898,2,-1,0,-1,-11,-1,-3,-1
1615919040771898,4,-2,-1,-1,-6,-2,1,-1
1615919040786847,-5,0,1,-4,-2,-4,-4,-2
1615919040786847,11,0,-1,-1,17,2,-2,-1
1615919040787847,-4,-1,0,0,1,-13,0,0
1615919040787847,-5,1,1,5,14,0,1,-1
1615919040809941,1,3,-2,0,-11,2,0,-1
1615919040809941,4,0,-5,-3,3,1,6,3
1615919040810938,-6,1,2,3,10,5,-27,-4
1615919040810938,-1,-3,-1,-8,-12,-12,1,-2
1615919040822903,-1,-1,1,1,1,-1,-4,-1
1615919040822903,4,0,-1,0,-3,1,1,-1
1615919040831880,-2,-2,-1,0,0,-4,3,-1
1615919040831880,-5,-1,-1,3,8,8,5,-1
1615919040847276,0,-3,-6,-10,-25,-15,-15,-2
1615919040847276,-2,0,9,4,-9,-7,-4,-2
1615919040848871,29,0,-2,-2,8,-2,5,2
1615919040848871,-22,-2,-5,-2,-14,-5,-7,-4
1615919040868845,1,-1,-2,1,17,6,9,-1
1615919040868845,3,0,-4,-2,-9,-1,-2,0
1615919040870810,11,0,2,2,5,9,1,1
1615919040870810,-3,-2,1,1,3,-16,-1,-2
1615919040882777,-1,2,-1,0,4,4,3,0
1615919040882777,6,-2,0,-1,-13,-7,-7,-1
1615919040891752,-13,0,0,1,12,3,18,2
1615919040891752,0,-1,0,-1,-1,-2,-21,-2
1615919040906905,-8,-3,-1,-4,-11,-2,1,-1
1615919040906905,0,-2,-1,-2,2,6,-3,0
1615919040907904,-9,-2,-4,-2,4,-5,0,0
1615919040907904,-1,-1,-1,-2,-1,0,7,1
1615919040928432,8,1,0,5,12,4,-3,0
1615919040928432,-4,-2,-3,-8,-16,-2,-2,-1
1615919040931022,14,-2,-2,-1,12,-1,-1,-1
1615919040931022,-33,-1,-1,-5,-25,-7,3,-3
1615919040959335,1,-3,0,2,6,4,-3,0
1615919040959335,4,-3,-7,-5,2,-6,3,-1
1615919040961331,-7,1,9,4,-3,1,-2,-2
1615919040961331,17,3,5,3,8,5,4,3
1615919040966318,-8,-4,1,-1,-4,-7,-11,-3
1615919040966318,-6,-3,-8,-3,-1,0,-4,-3
1615919040968339,-1,-2,2,-1,-5,4,-3,-1
1615919040968339,9,0,2,4,4,7,3,0
1615919040989258,-4,-1,-8,-6,-11,-11,2,1
1615919040989258,1,-1,1,0,9,7,0,-2
1615919040990260,-10,-1,-1,-5,-18,-7,-5,-4
1615919040990260,1,0,-1,3,17,2,11,1
1615919041011359,10,1,3,0,-1,3,4,1
1615919041011359,-33,-1,-6,-1,3,-5,0,0
1615919041028312,-6,0,1,2,0,5,3,-1
1615919041028312,8,-2,-2,-4,-8,-4,-4,-1
1615919041029308,1,0,2,0,4,6,6,1
1615919041029308,9,3,5,3,-4,-7,-7,3
1615919041032327,-3,-4,-9,-3,1,3,-1,-1
1615919041032327,-14,0,2,2,10,-1,3,0
1615919041056797,0,-3,-2,-6,-12,2,-3,-4
1615919041056797,5,-2,-3,-1,2,-7,-3,-1
1615919041058796,-9,1,-3,-4,-9,-4,-3,-2
1615919041058796,13,-2,-2,0,-1,2,-4,1
1615919041071844,-1,1,1,3,11,4,2,-2
1615919041071844,-1,-3,0,-1,-4,2,0,-2
1615919041073434,1,-1,2,2,3,-8,3,0
1615919041073434,-3,-2,-4,-3,-3,5,-9,-1
1615919041086009,-8,-1,-2,-3,-5,-5,-1,0
1615919041086009,7,-2,-4,-3,3,1,0,-2
1615919041087926,-12,1,2,1,1,-5,-3,-1
1615919041087926,4,2,4,-2,-14,2,0,0
1615919041108994,0,0,0,-1,3,-1,-2,-1
1615919041108994,0,-1,0,0,1,-5,-1,-3
1615919041110970,6,-3,-5,-7,-8,7,3,4
1615919041110970,-3,-1,1,-1,-5,-5,9,-3
1615919041130914,-6,1,-1,0,4,1,-2,-3
1615919041130914,11,2,0,4,1,-11,3,1
1615919041132908,-6,-4,-2,1,5,3,-7,-1
1615919041132908,3,2,0,-1,0,-2,0,-2
1615919041146080,1,-6,-5,-8,-25,0,0,-3
1615919041146080,-5,2,2,6,22,12,-1,2
1615919041160474,2,-1,-3,-6,-4,1,9,0
1615919041160474,-1,-2,-10,1,3,-8,-32,-3
1615919041168463,-5,3,8,5,8,0,3,-3
1615919041168463,0,-2,-1,-4,-9,6,3,0
1615919041170457,6,0,-4,0,1,-13,-2,0
1615919041170457,5,-2,0,-6,-6,1,0,0
1615919041191731,-24,-4,-6,-2,0,1,-2,-2
1615919041191731,1,-1,1,2,5,-2,-1,0
1615919041192733,1,1,1,1,-4,4,0,-1
1615919041192733,-6,-3,-4,-4,-9,-2,3,-1
1615919041206134,11,2,0,4,2,-5,-2,0
1615919041206134,-7,0,2,1,14,6,-2,-1
1615919041212123,-6,-4,-7,-2,-15,0,9,-1
1615919041212123,7,0,4,-2,-8,-4,-21,0
1615919041229097,-2,-2,1,0,6,4,4,-1
1615919041229097,5,1,3,-1,-12,-5,-3,-1
1615919041230098,-2,1,-2,-2,3,-1,-4,-2
1615919041230098,-12,-3,-1,2,7,1,7,0
1615919041251741,4,-2,0,3,-4,-4,-1,1
1615919041251741,7,-3,-3,-2,-4,0,-4,-2
1615919041252740,-3,-2,1,2,13,1,-3,-2
1615919041252740,4,-2,-2,-1,-2,3,11,-1
1615919041265891,-8,0,3,4,8,1,-1,0
1615919041265891,12,1,-6,-14,-43,-8,-1,0
1615919041272849,0,1,2,1,2,1,-2,1
1615919041272849,-3,-1,0,-1,7,-5,1,-2
1615919041303860,4,-2,-1,1,1,2,-3,-2
1615919041303860,-3,2,2,0,1,-2,-2,-1
1615919041305913,-4,-2,1,0,9,5,-4,-3
1615919041305913,-2,0,2,5,18,-1,4,1
1615919041311860,0,-2,-5,-13,-30,-9,-2,1
1615919041311860,-8,-3,-2,2,10,1,11,0
1615919041313432,-1,0,3,1,-1,-7,-30,-2
1615919041313432,-17,-2,-6,-3,7,4,1,-4
1615919041334336,4,1,-1,3,5,-5,-2,0
1615919041334336,-5,-2,-2,4,7,-4,6,3
1615919041335329,1,-2,-3,-13,-33,2,7,-1
1615919041335329,6,-1,0,4,7,3,0,2
1615919041348345,17,1,-3,-1,2,4,9,0
1615919041348345,-15,-1,-2,-3,-5,-10,-11,-6
1615919041350343,-2,-1,-2,3,8,-1,5,0
1615919041350343,6,1,-1,-5,-12,-5,-6,-1
1615919041370872,-2,-5,-2,-2,-2,-1,4,0
1615919041370872,11,3,6,5,13,9,2,1
1615919041372867,-6,-3,-7,-3,-11,-5,6,-1
1615919041372867,3,-1,-4,-1,6,2,-14,-2
1615919041385927,-7,-1,0,-3,-17,-9,-4,-2
1615919041385927,-3,1,1,2,3,0,-4,-2
1615919041399929,-4,0,2,-1,2,-4,3,-2
1615919041399929,3,-1,-6,-5,-8,4,7,2
1615919041408435,7,-2,3,5,7,-2,-6,-1
1615919041408435,-18,-3,-4,-2,-7,1,-2,-2
1615919041410431,3,1,1,-1,-12,-1,-1,-3
1615919041410431,21,0,0,0,9,-4,2,1
1615919041438467,-11,-1,-2,-3,-5,-6,-3,-1
1615919041438467,5,-2,0,-7,-6,2,4,0
1615919041446451,-2,0,-6,4,11,-1,-1,-1
1615919041446451,0,0,16,3,-6,-5,-1,-1
1615919041447448,-3,-2,-7,-6,2,8,6,-2
1615919041447448,-2,0,2,0,-4,2,1,-1
1615919041452436,-1,-1,-2,-6,-16,-15,-13,-2
1615919041452436,-4,-1,-4,1,8,5,2,-2
1615919041477367,-5,1,1,1,-5,-9,2,-2
1615919041477367,0,-2,-8,-7,-5,1,-2,-1
1615919041478363,3,-1,0,0,1,5,2,2
1615919041478363,-2,-3,-4,0,-4,-7,6,1
1615919041491868,-13,1,5,1,9,3,-7,-2
1615919041491868,4,-2,0,0,3,-2,0,-2
1615919041492633,23,2,4,2,5,2,0,0
1615919041492633,-34,-4,-2,-1,-11,-2,-3,-7
1615919041513983,5,0,-1,-3,5,-11,1,1
1615919041513983,-2,-5,0,1,0,-3,-6,-2
1615919041515869,3,-1,-2,2,7,3,0,-1
1615919041515869,5,1,0,-2,3,1,0,0
1615919041529421,1,0,0,-1,-1,5,-3,0
1615919041529421,-5,-3,2,1,-3,-3,1,0
1615919041530420,-1,0,-3,2,10,3,1,-2
1615919041530420,3,-1,-2,-1,-11,-7,3,2
1615919041551827,-4,-2,-9,2,7,10,-2,-2
1615919041551827,3,0,8,-1,-6,-12,-8,-2
1615919041553363,-9,-4,0,-2,-1,3,6,1
1615919041553363,3,3,-1,-3,-5,-5,7,-3
1615919041581412,9,1,-3,-1,2,3,-6,0
1615919041581412,-7,1,-1,-2,-11,-1,0,-1
1615919041583407,15,-4,-1,1,6,7,-1,1
1615919041583407,-42,-5,-2,3,13,-1,8,-6
1615919041589390,6,-3,-3,-6,-20,-5,-2,-1
1615919041589390,6,4,6,5,7,3,0,2
1615919041590388,3,-2,-3,-4,-7,-14,-2,0
1615919041590388,10,-2,-2,1,6,5,-3,0
1615919041611783,-2,-2,-2,0,6,0,-1,0
1615919041611783,-5,-5,-5,-1,-4,0,-7,-1
1615919041612792,-6,-3,2,-3,-5,1,1,-1
1615919041612792,2,-2,-1,-4,-7,0,-7,-2
1615919041624775,2,1,-1,2,7,0,-1,1
1615919041624775,3,-1,-1,-1,0,8,20,3
1615919041639741,-8,0,-3,1,-2,-8,-32,-5
1615919041639741,1,-4,-1,-3,-18,-12,-5,-1
1615919041648689,19,0,-2,2,11,6,2,0
1615919041648689,-18,-1,-2,3,24,-3,-1,-6
1615919041650919,5,3,-2,-2,-12,2,6,2
1615919041650919,-19,-2,0,-3,2,5,11,-2
1615919041671844,5,1,1,-1,-2,-5,-6,1
1615919041671844,4,-5,-6,-2,3,-1,-5,-5
1615919041672815,-5,1,7,4,13,5,2,1
1615919041672815,13,2,-3,-1,-1,2,4,2
1615919041684784,-12,-2,3,-1,-12,-4,0,-5
1615919041684784,-2,-2,-4,-2,-1,4,-2,-1
1615919041693758,-6,-2,1,0,-3,-6,3,-1
1615919041693758,8,-2,-4,0,0,1,6,3
1615919041709957,-8,1,6,3,-7,0,-21,-3
1615919041709957,20,-2,-4,-4,-3,-5,-1,0
1615919041710961,-15,-2,-1,-1,2,-9,0,-1
1615919041710961,8,1,-2,-3,-6,1,-2,1
1615919041730907,-6,0,0,0,0,2,7,0
1615919041730907,9,-2,-5,0,6,-9,-2,1
1615919041732901,2,-3,-1,-2,-11,6,5,1
1615919041732901,-3,2,-2,3,10,0,-6,-3
1615919041745602,-7,-3,-2,-4,-8,-5,3,0
1615919041745602,-6,1,0,1,-2,-1,-5,-3
1615919041762362,-1,-1,-5,-2,1,-3,6,0
1615919041762362,-6,-1,5,-4,-1,-3,-9,-2
1615919041769367,10,-1,-3,-3,-1,-1,1,-1
1615919041769367,-3,0,5,-1,-6,0,2,1
1615919041770344,-3,0,-6,3,3,1,-1,-3
1615919041770344,29,-2,3,-1,-6,-9,-1,3
1615919041791806,-40,-3,-4,-1,4,-3,10,-5
1615919041791806,5,3,-5,-3,-7,3,-3,4
1615919041793415,-2,-2,6,1,-4,1,2,-2
1615919041793415,4,-3,-2,-2,2,0,-6,-3
1615919041805556,2,-1,3,3,6,0,9,0
1615919041805556,-5,-2,-2,-7,-21,-4,-2,-2
1615919041813538,-5,-4,-9,-4,-1,-5,-8,-1
1615919041813538,2,0,-3,1,1,6,0,1
1615919041829406,-4,1,0,-2,-5,-11,-3,-1
1615919041829406,-11,0,2,5,6,4,0,-1
1615919041830407,16,2,0,-2,-5,-4,-4,0
1615919041830407,-7,-2,-1,-4,-9,0,-3,-2
1615919041851834,1,-4,-6,4,17,8,-1,-1
1615919041851834,9,0,-2,-7,-28,-2,-3,2
1615919041852797,-28,-1,-2,3,0,1,5,-3
1615919041852797,7,-2,-3,3,16,9,4,2
1615919041864845,-1,1,0,-1,-11,1,3,-2
1615919041864845,-6,-4,-2,1,10,-1,-4,-2
1615919041873822,5,0,-1,-1,10,2,-1,1
1615919041873822,2,-2,-3,-9,-17,-6,-1,-4
1615919041888779,4,0,5,5,8,2,0,3
1615919041888779,-7,-4,1,2,5,-7,5,-2
1615919041890775,11,-1,0,-5,-6,6,-3,-1
1615919041890775,-10,1,-3,2,3,-4,-1,2
1615919041911816,2,-1,1,-1,-2,13,-8,0
1615919041911816,-2,1,-5,-2,2,-14,-5,-3
1615919041912793,0,-2,4,-1,-2,-11,-2,0
1615919041912793,-2,2,-3,3,6,3,3,-2
1615919041933898,32,-1,-4,-8,-9,-4,-1,1
1615919041933898,-33,-2,0,2,11,7,0,-3
1615919041935920,2,0,-4,0,-6,-3,-6,-2
1615919041935920,-5,0,1,0,-3,-4,2,0
1615919041948907,7,0,-7,-2,12,-5,5,-1
1615919041948907,14,1,4,-2,-10,1,-6,-1
1615919041950207,-6,-1,2,2,5,2,7,0
1615919041950207,-5,-2,-4,-1,-3,-4,4,0
1615919041970893,-9,-3,2,1,-5,-3,-8,-3
1615919041970893,1,-3,-4,-2,3,-2,7,-2
1615919041972866,-2,0,-3,-2,1,0,-3,0
1615919041972866,-7,1,-1,0,2,0,-8,-4
1615919041993991,-7,-2,-1,-5,-9,4,3,0
1615919041993991,2,1,10,10,10,-2,-1,1
1615919041995247,5,0,0,0,11,-4,-2,-2
1615919041995247,1,-2,-3,-6,-16,-11,-7,-2
1615919042008517,-7,1,-6,-2,0,2,3,2
1615919042008517,11,4,4,-1,-1,4,-3,0
1615919042010532,-7,-4,-3,1,2,12,4,-3
1615919042010532,8,-1,2,1,7,-13,4,0
1615919042031437,-10,-1,-1,-1,2,-6,-4,-2
1615919042031437,-1,-5,-6,-7,-17,-3,-14,-2
1615919042033434,6,3,-2,-4,-4,-3,5,2
1615919042033434,-6,0,1,2,7,9,7,-1
1615919042054415,-2,-2,-3,-5,-14,-9,-6,-5
1615919042054415,3,-3,4,3,9,9,5,3
1615919042055443,-4,-1,-5,-6,-2,-5,5,-1
1615919042055443,0,0,1,4,7,2,-9,0
1615919042068376,-21,-2,1,1,0,-4,-5,-3
1615919042068376,-9,-1,-2,-3,-1,2,1,-5
1615919042075357,-3,-3,0,-6,-23,-8,-4,-2
1615919042075357,0,0,1,2,3,-3,-1,0
1615919042091046,3,-4,-4,3,1,1,-1,0
1615919042091046,6,2,-5,-2,2,1,3,0
1615919042093042,9,0,2,-7,-12,2,-3,0
1615919042093042,3,1,-2,0,-1,-1,-3,-3
1615919042114118,1,-1,-4,-2,4,-4,-2,-1
1615919042114118,-4,-3,-3,-5,-20,-2,0,-1
1615919042115104,2,-3,0,3,4,0,-1,0
1615919042115104,-2,-3,-2,-3,-2,1,4,-1
1615919042128433,1,3,4,-4,-17,-1,-7,-1
1615919042128433,0,0,-3,2,11,-2,2,0
1615919042135530,0,0,4,3,9,10,-6,-1
1615919042135530,10,-1,-2,-5,-13,-12,8,-1
1615919042151894,-28,-3,-2,2,7,6,3,-1
1615919042151894,8,-2,-1,-1,0,-5,-2,0
1615919042152794,-5,-4,-2,-1,-12,-12,-8,-1
1615919042152794,-2,-2,-5,-7,-17,20,5,0
1615919042173962,11,0,4,0,5,-9,3,-3
1615919042173962,2,-2,-7,-3,6,2,-3,0
1615919042175956,-11,1,-2,4,-2,2,-1,-4
1615919042175956,-2,-4,2,-6,-7,-6,-8,1
1615919042188712,4,4,-4,-1,7,-3,7,-1
1615919042188712,-5,1,-4,-6,-6,4,0,-1
1615919042195539,2,-4,-7,0,15,-1,1,0
1615919042195539,1,2,5,5,6,5,-2,1
1615919042211782,3,-2,4,-3,-11,0,-3,0
1615919042211782,18,-1,-2,2,7,-1,10,1
1615919042212790,-40,-2,-1,-4,-1,1,-1,-5
1615919042212790,-3,-1,-5,2,2,-4,-9,-2
1615919042233727,1,-2,5,3,7,5,3,2
1615919042233727,1,0,-1,0,-9,-7,-7,-1
1615919042235721,10,2,2,2,12,-2,0,0
1615919042235721,-6,-3,0,-2,-14,-2,-7,-2
1615919042248017,0,-1,-3,1,-5,0,1,-3
1615919042248017,-5,-3,-2,-4,-3,-2,-6,0
1615919042255564,2,-2,-1,-2,-11,2,3,-2
1615919042255564,3,0,-1,1,9,-3,-13,0
1615919042271862,-8,-2,-3,-4,-4,7,-1,0
1615919042271862,0,3,1,2,18,0,10,-2
1615919042272941,4,-1,-1,-6,-20,-14,-31,-3
1615919042272941,21,0,5,8,22,8,5,2
1615919042293986,-14,-1,3,-5,-12,-10,-3,-4
1615919042293986,-7,-4,-3,1,5,3,-1,0
1615919042295982,5,0,-1,-1,-2,-1,5,-1
1615919042295982,0,0,-4,-4,-10,-3,-2,-2
1615919042308680,7,0,5,6,16,4,-4,1
1615919042308680,-7,-2,-4,-4,-6,-3,7,-1
1615919042322797,6,1,-3,2,1,3,1,1
1615919042322797,-11,-2,0,1,8,-1,-1,-1
1615919042331825,4,-2,-8,-4,-17,1,2,-2
1615919042331825,-5,0,0,0,-3,-8,-4,-2
1615919042332851,31,1,-2,-4,-5,4,4,2
1615919042332851,-65,-5,2,1,-6,-4,-1,-6
1615919042353562,12,2,-6,-1,11,4,1,1
1615919042353562,6,-4,-3,0,-2,-13,1,0
1615919042356006,3,0,2,-1,9,1,-3,2
1615919042356006,5,2,1,-2,-6,-2,6,-1
1615919042368973,1,-2,-3,-1,1,2,1,-1
1615919042368973,-11,1,-1,4,-2,4,-8,-2
1615919042383023,-2,1,6,2,15,-6,9,1
1615919042383023,3,-1,-2,-3,-5,-1,-2,-1
1615919042391020,3,-2,-1,2,5,-1,-6,-1
1615919042391020,0,0,-2,-6,-19,-1,11,0
1615919042393000,-12,-4,-8,1,20,-2,-9,-4
1615919042393000,8,0,0,-6,-16,0,2,-1
1615919042414022,8,3,3,-2,0,-6,-5,0
1615919042414022,20,2,2,3,7,5,-6,1
1615919042415989,-47,-3,-2,3,-4,-4,4,-4
1615919042415989,2,0,0,0,3,11,-3,1
1615919042427953,6,-1,-4,-1,6,-1,1,0
1615919042427953,-1,-3,1,-2,0,7,-2,0
1615919042436930,3,0,0,0,0,-11,8,0
1615919042436930,4,2,-3,-1,-1,2,-5,-1
1615919042451838,-9,-3,-2,-3,-10,-5,1,-2
1615919042451838,-10,-3,-8,-6,7,4,-3,-3
1615919042452797,13,1,12,3,-7,4,-1,2
1615919042452797,-4,-2,-5,1,4,-4,8,1
1615919042473868,5,0,-5,-5,-8,-4,-2,1
1615919042473868,-9,-1,1,1,-1,-3,-8,-2
1615919042475216,0,1,-4,0,2,6,9,1
1615919042475216,5,1,2,4,4,-1,-1,0
1615919042487572,-3,-1,-1,-3,-11,-7,-7,-3
1615919042487572,-1,-1,-1,-1,-3,-5,0,-1
1615919042496375,6,-1,-1,-2,0,6,-3,0
1615919042496375,3,-2,1,0,-4,-6,-3,-1
1615919042511878,3,-3,-4,0,13,2,-3,-1
1615919042511878,-10,1,3,-3,-18,-1,10,0
1615919042513337,11,0,-3,-4,-13,-1,1,-2
1615919042513337,-4,-1,-2,-5,6,-11,-29,-2
1615919042534286,-1,-2,2,2,10,3,5,1
1615919042534286,7,-1,0,-2,2,-6,-2,0
1615919042535279,-8,0,-2,0,0,5,2,-3
1615919042535279,-4,-1,0,1,3,3,4,-1
1615919042547318,0,-2,-3,-1,-1,-3,-3,-1
1615919042547318,-1,-1,0,-2,4,-1,-9,-2
1615919042556309,-7,-1,-1,5,3,0,3,1
1615919042556309,20,0,-4,0,4,-1,1,1
1615919042571870,-15,-3,2,0,-18,-1,4,-3
1615919042571870,-2,-4,-2,-4,-12,4,-4,-2
1615919042572795,-4,-3,-3,0,6,-1,-3,-2
1615919042572795,11,0,-1,-3,-5,1,3,-2
1615919042594446,-1,-3,1,0,1,5,1,-1
1615919042594446,2,-2,-5,1,3,-2,-2,0
1615919042595974,-5,-1,8,-1,8,-8,-6,-1
1615919042595974,-5,-3,-3,-1,-2,4,14,0
1615919042607982,1,1,1,-5,0,10,-24,-1
1615919042607982,-8,0,0,3,-1,-12,-2,-2
1615919042616322,5,-4,-10,-5,-11,-8,-5,-1
1615919042616322,-3,-1,5,-3,-7,-4,6,-3
1615919042631305,-4,0,0,1,0,0,4,0
1615919042631305,8,-1,0,-1,9,13,4,1
1615919042633275,2,-2,0,0,2,1,-5,-2
1615919042633275,-33,-1,-9,-7,-17,-2,-3,-2
1615919042653994,3,-2,-3,0,1,-5,-2,0
1615919042653994,1,-1,0,-3,-13,-2,-3,-1
1615919042655264,-3,-3,2,2,-6,-3,4,1
1615919042655264,1,-2,-5,-4,2,5,-7,-2
1615919042667234,5,0,1,-4,-12,-5,3,0
1615919042667234,-2,0,1,4,16,4,2,0
1615919042682402,-21,-2,-1,-4,-15,2,-1,-5
1615919042682402,8,1,2,2,8,-3,8,2
1615919042691861,-2,0,-1,0,7,-1,-27,-5
1615919042691861,2,0,-3,-3,-4,-3,-1,0
1615919042692791,3,-1,-3,-5,-10,-2,-3,-1
1615919042692791,0,1,1,2,8,1,1,1
1615919042713940,-6,2,2,1,-3,-12,9,0
1615919042713940,1,-1,0,1,0,2,-3,-2
1615919042715909,4,1,-3,-1,6,5,0,0
1615919042715909,-3,-2,1,3,4,2,-5,-2
1615919042728012,20,-3,-5,-3,-10,-7,6,0
1615919042728012,-15,2,2,0,8,-4,-6,-1
1615919042737048,5,1,-2,0,-7,1,6,0
1615919042737048,0,-1,-2,1,9,5,-6,0
1615919042751083,-2,1,2,3,6,-8,11,1
1615919042751083,-1,-4,0,-2,5,15,-2,0
1615919042753080,0,-1,0,-4,-3,-15,-1,0
1615919042753080,-2,-1,-7,1,2,-3,4,-1
1615919042773867,-4,-2,3,4,22,1,-21,-3
1615919042773867,-4,-1,0,-3,-28,-7,6,-2
1615919042776038,4,1,-6,-2,5,5,-3,1
1615919042776038,-17,-5,-2,-2,1,-1,5,-3
1615919042787153,-4,-1,1,0,-4,0,6,-2
1615919042787153,25,1,-3,-2,-1,-1,-3,1
1615919042796282,-22,-2,1,2,1,-5,-4,-4
1615919042796282,-4,-4,-2,-6,-13,-7,-5,-3
1615919042811858,10,2,-4,-7,-11,6,7,1
1615919042811858,-3,-3,-1,0,3,-3,-4,-1
1615919042812798,14,1,6,6,13,7,0,-1
1615919042812798,-7,2,4,-1,-4,-12,-2,-4
1615919042833749,-10,-2,-8,-6,-10,5,4,-1
1615919042833749,0,1,-1,2,4,-6,-2,-1
1615919042835745,3,1,-2,-2,-4,-1,0,3
1615919042835745,4,-1,6,-2,-7,4,-4,1
1615919042847712,1,-1,2,2,-1,-5,1,-2
1615919042847712,-3,1,-8,2,1,-5,1,0
1615919042856173,21,-2,-3,-2,-1,2,3,2
1615919042856173,-52,-2,0,-1,-11,-1,8,-6
1615919042871162,-3,0,-1,-1,-3,-2,-13,-3
1615919042871162,-2,-1,-3,-8,-18,-5,-1,-1
1615919042873132,0,-1,17,11,14,3,-1,-1
1615919042873132,18,1,-5,-3,-9,-6,7,1
1615919042893567,-2,-3,-7,-2,-3,-2,4,-1
1615919042893567,-7,1,11,2,17,5,-3,-2
1615919042895532,-2,-3,-17,-8,-19,-3,-4,-1
1615919042895532,11,1,2,0,14,3,-8,2
1615919042916475,-9,1,1,-1,-3,5,7,-4
1615919042916475,8,-1,-3,-1,6,2,-9,3
1615919042918469,-8,0,2,4,3,-5,5,-2
1615919042918469,9,-1,-5,0,-6,0,-5,2
1615919042931434,-2,-2,-5,-8,-27,-9,8,2
1615919042931434,20,-3,1,-1,-7,-3,-23,-2
1615919042933429,-28,-1,0,-1,16,2,-2,-3
1615919042933429,-7,-1,-1,-4,-21,-3,-5,0
1615919042953838,1,-3,-2,-2,7,1,0,-1
1615919042953838,-1,-3,1,3,3,4,12,1
1615919042955816,5,-1,-5,-7,-9,-10,-18,-3
1615919042955816,13,-4,-9,-5,9,3,-4,-2
1615919042976776,-12,-2,10,6,-1,-4,3,-1
1615919042976776,-5,0,-3,-2,10,3,2,1
1615919042977779,0,-3,-5,-8,-20,-1,-1,-1
1615919042977779,7,-1,0,5,8,-1,5,1
1615919042990572,1,-1,-4,-3,5,-1,-8,-2
1615919042990572,-6,-5,-5,1,1,-3,3,-2
1615919042998747,0,0,3,-6,-21,-10,3,-2
1615919042998747,7,-1,-3,-2,12,4,-4,-2
1615919043013915,0,3,-4,2,2,5,8,2
1615919043013915,-5,-2,0,3,-5,-21,-28,-4
1615919043015911,6,-2,-2,-1,4,4,6,1
1615919043015911,18,-1,2,0,0,-8,-5,0
1615919043036936,-12,-2,0,2,8,7,1,-1
1615919043036936,-6,-3,-2,-4,-3,2,12,-1
1615919043037936,7,1,-1,-2,-6,-5,-6,0
1615919043037936,-6,-1,-7,2,16,-1,-2,-1
1615919043051185,3,0,1,-3,0,-3,1,-1
1615919043051185,-5,1,7,4,8,2,6,1
1615919043058064,1,-1,-4,-5,-13,-4,-3,-1
1615919043058064,-4,0,2,4,-6,3,2,1
1615919043074440,4,1,-9,-1,13,-1,0,-1
1615919043074440,-7,0,-1,-4,-9,-2,-1,-2
1615919043075426,-4,0,1,6,13,3,12,1
1615919043075426,3,-1,0,-5,-4,-2,0,-1
1615919043096912,-11,-2,-2,-3,-12,-1,-6,-2
1615919043096912,3,1,-5,-3,-3,6,12,1
1615919043097801,-1,-2,0,0,-6,-5,-31,-3
1615919043097801,-25,-1,0,-2,-7,-4,-2,-3
1615919043110886,10,-3,-3,1,6,1,-4,2
1615919043110886,2,1,1,1,-4,0,4,-2
1615919043117895,-7,-3,-2,1,26,3,6,1
1615919043117895,8,-1,-3,-13,-45,-6,-3,0
1615919043135393,12,1,2,3,9,-3,-5,1
1615919043135393,-15,-3,-1,-2,-1,2,-1,-5
1615919043140564,7,0,-1,4,16,0,3,1
1615919043140564,7,3,1,-1,5,2,-5,0
1615919043156534,1,0,6,-2,-5,0,9,-1
1615919043156534,5,-1,-7,-9,-8,-7,-5,0
1615919043159453,-5,-4,-7,-5,-10,3,0,-2
1615919043159453,6,-2,12,5,6,-4,-1,0
1615919043170988,-10,1,0,-1,-1,1,-1,-1
1615919043170988,-1,2,-4,5,20,-1,6,1
1615919043178829,-2,0,-1,-8,-26,-1,3,-1
1615919043178829,23,0,-2,1,13,-7,-13,-1
1615919043193988,-18,-6,-5,-3,-1,-1,-3,-3
1615919043193988,1,-1,4,1,8,1,-2,-3
1615919043195273,0,1,-1,2,0,4,10,3
1615919043195273,5,0,0,0,2,5,3,0
1615919043216878,4,-1,1,0,2,1,-6,-1
1615919043216878,-4,-2,-2,-3,-14,-16,2,1
1615919043217881,5,-4,-3,-5,-5,6,-9,-1
1615919043217881,-21,-3,-2,1,2,-4,0,-5
1615919043238820,4,0,-4,0,6,1,0,0
1615919043238820,-6,-1,1,1,-4,-3,-3,-2
1615919043245572,6,1,1,-1,2,-1,3,0
1615919043245572,-6,0,-5,-1,-10,2,0,1
1615919043253878,6,-2,-3,0,8,-4,2,1
1615919043253878,1,0,-2,-1,-8,5,1,2
1615919043255255,22,-2,-1,-3,2,-6,8,0
1615919043255255,-45,-2,-6,-1,15,13,-21,-4
1615919043276947,7,4,4,1,-6,-17,-4,-1
1615919043276947,-1,-1,-3,-1,-6,5,0,-2
1615919043277947,-1,0,2,1,8,-3,-1,-2
1615919043277947,4,-1,-2,-1,2,3,6,1
1615919043291280,2,-1,-3,-5,-13,0,-4,-1
1615919043291280,-1,2,-1,-3,1,-3,-4,0
1615919043297267,-12,-1,1,3,9,9,3,-1
1615919043297267,18,0,1,0,-7,-10,5,2
1615919043313544,-6,-3,-1,-4,-11,-4,-7,-2
1615919043313544,4,-2,-2,-6,-15,4,9,-2
1615919043315447,-8,0,-2,-3,-3,0,-18,-1
1615919043315447,5,1,-3,1,5,-4,2,1
1615919043336418,23,-1,-2,-1,4,1,8,2
1615919043336418,-19,-1,8,0,-1,-8,-2,-2
1615919043350915,-1,-1,-6,2,6,4,-2,-2
1615919043350915,7,0,3,1,-10,-3,5,0
1615919043351987,-4,1,6,-4,-4,5,-2,-4
1615919043351987,3,-2,-5,1,7,3,3,0
1615919043358950,-7,-1,-1,1,-4,-10,-4,-4
1615919043358950,8,0,-1,0,9,-1,3,3
1615919043373992,-14,-5,-4,-1,-5,2,1,-5
1615919043373992,3,0,0,-2,-7,1,-5,-3
1615919043375889,-6,-2,1,-2,-4,-2,-2,-2
1615919043375889,3,-1,-4,0,6,-3,4,-2
1615919043396879,-23,-1,0,-7,-15,-1,5,-1
1615919043396879,-7,-4,-6,0,4,4,-15,-1
1615919043398020,5,0,-3,2,-2,8,13,2
1615919043398020,1,-3,4,1,-5,-17,-14,-4
1615919043419042,3,-4,-6,-5,3,-1,-6,0
1615919043419042,0,1,2,1,-11,0,2,0
1615919043420040,-11,-3,-4,-7,-2,-4,-3,-5
1615919043420040,0,-1,-3,-3,-4,6,0,-1
1615919043434108,5,0,-2,4,13,3,4,0
1615919043434108,1,-2,-2,-1,1,-4,-4,-1
1615919043436026,7,0,3,-1,-12,-2,-1,3
1615919043436026,-9,-4,-2,-3,9,7,2,-2
1615919043456834,-2,-1,6,2,-4,-7,-5,-1
1615919043456834,8,2,-10,1,7,3,11,1
1615919043457798,-15,-3,0,-3,-10,4,-6,-2
1615919043457798,2,-2,-1,-5,-5,5,4,-1
1615919043469762,0,2,-1,7,8,-4,-1,2
1615919043469762,19,-3,0,-3,11,-7,-8,1
1615919043484949,-29,-1,5,-1,-14,-5,9,-1
1615919043484949,1,-3,-4,2,9,10,0,0
1615919043494014,-1,0,3,-6,-2,-8,-6,-2
1615919043494014,2,-2,-3,3,12,3,2,-1
1615919043495250,14,1,-3,-2,-11,-9,-5,1
1615919043495250,-3,-2,-2,-5,-10,2,-1,2
1615919043516889,-4,1,-1,3,9,4,10,0
1615919043516889,-8,-4,0,-4,-6,-8,-17,-3
1615919043522902,3,0,-3,-1,13,4,3,0
1615919043522902,-6,-1,-1,0,-10,-1,0,-2
1615919043530016,2,-1,-5,-2,-8,-2,2,0
1615919043530016,3,1,2,0,-1,-3,3,2
