timestamp,emg1,emg2,emg3,emg4,emg5,emg6,emg7,emg8
1615918999639239,2,0,0,5,2,-8,1,-1
1615918999639239,2,0,-3,-2,-6,0,4,0
1615918999653203,-4,-2,1,3,14,6,-3,-1
1615918999653203,4,0,-1,-1,-3,1,6,1
1615918999661240,-27,-7,-6,-3,0,-4,-4,-4
1615918999661240,6,2,-7,2,0,-2,-2,-3
1615918999668223,1,3,20,5,-8,-14,-7,-2
1615918999668223,-5,-2,-2,-4,5,6,-3,-2
1615918999675905,1,-2,-3,5,-4,-1,-1,-1
1615918999675905,2,-1,7,-3,-2,2,-1,0
1615918999690870,0,-1,-9,-4,8,3,-4,0
1615918999690870,1,-1,1,4,-2,-4,-23,-1
1615918999698836,2,-2,3,-2,21,-11,-1,-1
1615918999698836,0,-2,-3,-4,-11,4,6,0
1615918999713884,0,0,-3,-2,-7,-1,-6,-2
1615918999713884,-19,-3,4,0,7,-1,13,-2
1615918999721847,7,1,-8,-3,-6,-4,-8,0
1615918999721847,4,-4,-5,1,0,4,-1,3
1615918999728823,-5,0,1,-8,7,5,1,-3
1615918999728823,2,-1,-6,2,5,2,12,0
1615918999735806,2,-1,-3,-6,-3,-10,8,1
1615918999735806,-2,0,1,2,11,-4,1,1
1615918999751443,-3,-5,-8,1,-18,-3,-2,-2
1615918999751443,0,-3,-2,-2,0,1,15,0
1615918999758771,1,5,6,0,0,0,-12,-2
1615918999758771,8,-2,1,2,-4,-2,-4,-1
1615918999773883,1,2,1,0,7,4,2,-1
1615918999773883,-5,-1,1,-5,-6,2,8,-2
1615918999782007,-5,-5,-2,6,6,3,5,-1
1615918999782007,-2,-3,-8,-8,-20,-12,-3,0
1615918999796990,1,2,8,7,0,0,-11,0
1615918999796990,-5,-1,-1,-6,-2,1,6,0
1615918999797923,9,1,-2,-2,-1,0,2,0
1615918999797923,-2,-3,1,-2,1,-11,-5,0
1615918999810915,5,-3,-8,-2,-4,-1,1,-1
1615918999810915,-1,0,-2,-1,3,4,-16,-1
1615918999819625,-3,0,1,-2,-21,-6,12,1
1615918999819625,-4,-1,-8,-4,13,13,1,0
1615918999833929,-14,0,7,1,-16,-2,12,0
1615918999833929,2,-3,-1,1,-2,-7,-7,-3
1615918999841857,3,-1,-3,-6,-3,6,-12,-1
1615918999841857,-12,-2,0,0,3,5,14,-2
1615918999856397,8,-3,-5,-6,8,-2,-6,-1
1615918999856397,7,2,-5,5,-4,-7,-2,-1
1615918999858392,-3,3,9,-5,1,2,-5,-1
1615918999858392,5,-1,-1,-1,1,-4,-7,-2
1615918999880029,-3,-2,-3,4,6,1,11,2
1615918999880029,-2,0,2,3,-4,-9,-19,-2
1615918999881072,4,-5,-11,-5,6,3,10,2
1615918999881072,6,5,13,4,-13,-9,-6,0
1615918999893650,-16,-2,-6,-4,6,1,0,-3
1615918999893650,0,-2,-1,-2,1,9,8,0
1615918999902114,-4,-1,2,5,-3,-9,-11,-3
1615918999902114,0,-1,-5,-3,1,-11,-7,-2
1615918999916448,4,-2,-4,-5,-4,2,-7,-1
1615918999916448,0,1,1,-2,-4,3,12,2
1615918999917424,-7,-5,-1,3,4,9,-1,-2
1615918999917424,1,4,-3,-3,4,-5,-17,-2
1615918999931312,7,2,2,-2,-16,-3,16,2
1615918999931312,-3,-2,-4,3,9,-7,-6,-1
1615918999938781,2,3,11,3,-13,-2,-5,0
1615918999938781,-8,-6,-7,-2,0,9,1,-3
1615918999954027,-13,-4,-4,-2,-3,-2,8,-4
1615918999954027,6,-3,-6,-4,14,-2,1,1
1615918999962006,0,2,12,9,-20,-5,-4,0
1615918999962006,-4,1,2,0,-3,-2,3,1
1615918999977130,6,0,-2,-1,-2,-3,-14,-2
1615918999977130,-11,-5,-3,-6,0,2,4,-3
1615918999977130,2,-1,-8,-6,-2,-4,-1,1
1615918999977130,6,-1,3,2,3,8,3,-2
1615918999991243,1,-3,-6,-4,2,-7,-11,0
1615918999991243,-1,0,2,-1,-7,-6,0,-2
1615918999999591,-2,-1,4,2,10,10,17,0
1615918999999591,-6,-1,-2,-2,-3,-6,-1,-2
1615919000012932,-16,-1,-7,2,6,-1,-14,-3
1615919000012932,0,0,7,2,-13,-3,1,1
1615919000022090,3,0,-6,-3,10,0,15,0
1615919000022090,-2,-3,-2,-6,-11,7,12,0
1615919000037129,3,1,5,7,9,3,7,-1
1615919000037129,1,-2,-6,-7,-6,5,-5,0
1615919000037129,-9,-3,-4,-1,3,-8,-9,-2
1615919000037129,7,0,-1,-3,-2,-8,-30,-3
1615919000051405,5,-1,7,6,-2,-1,-1,1
1615919000051405,-3,1,-1,-6,-3,0,-2,-2
1615919000059409,0,-3,-8,-3,6,10,1,0
1615919000059409,-5,0,1,1,4,1,12,-1
1615919000073821,2,0,-4,-10,-6,-3,-4,-2
1615919000073821,-1,2,7,6,-3,-5,0,-1
1615919000082107,0,-2,-4,-2,-2,-3,-17,-2
1615919000082107,-2,-4,-9,-2,0,-3,17,1
1615919000097086,0,2,9,-2,-5,2,-12,-2
1615919000097086,3,1,5,3,0,-2,2,1
1615919000097086,-17,-7,-9,-2,-3,-6,6,-3
1615919000097086,11,5,-2,-3,-2,-6,-28,-3
1615919000110929,3,-5,-5,-1,0,3,2,1
1615919000110929,-4,-1,-6,-4,-1,-6,4,0
1615919000119626,2,2,7,-1,-2,3,4,0
1615919000119626,-4,-4,-5,5,5,4,4,0
1615919000133941,3,2,0,-4,-9,-6,-1,-1
1615919000133941,2,0,3,3,10,3,-12,-2
1615919000141789,10,-2,-5,-3,2,-6,-2,0
1615919000141789,-5,-5,-1,1,-3,4,-2,-1
1615919000156372,5,2,0,-2,3,1,14,1
1615919000156372,-5,-1,-1,-2,-1,4,9,2
1615919000164375,0,-2,-7,-4,-14,1,-3,0
1615919000164375,3,4,7,1,5,-2,4,1
1615919000171181,-15,-7,-8,1,0,-7,-1,-1
1615919000171181,10,4,1,-4,-4,10,3,1
1615919000178835,0,0,1,0,-1,-15,-13,-2
1615919000178835,-7,-3,-7,-2,1,-4,5,-1
1615919000193159,2,-1,-1,-2,6,11,-1,-2
1615919000193159,-5,-2,-3,2,2,-12,-3,-2
1615919000202029,6,2,-3,-3,1,10,9,0
1615919000202029,-19,-2,0,6,11,-1,-10,-3
1615919000216784,1,-1,-5,-7,-15,-7,-12,1
1615919000216784,-2,0,0,-2,-15,9,-6,-3
1615919000217765,1,0,-1,-1,-3,-13,5,-2
1615919000217765,4,-1,-2,-2,5,-1,9,0
1615919000230727,0,0,5,1,2,2,-9,-2
1615919000230727,-3,-1,-1,-2,7,-3,-3,-1
1615919000238707,-8,-6,-3,5,5,4,-6,0
1615919000238707,9,2,6,-1,-6,7,9,2
1615919000253977,-2,0,0,1,-5,-9,-6,-3
1615919000253977,1,-3,-4,-2,7,1,9,-1
1615919000269657,-6,2,-2,-1,13,-7,3,-4
1615919000269657,8,-2,-3,0,-7,-2,-32,-2
1615919000276969,-9,-2,1,2,-1,1,3,0
1615919000276969,4,0,2,6,3,4,-3,0
1615919000277443,-5,-2,4,-5,-9,6,0,-2
1615919000277443,9,3,-1,-7,0,-9,6,0
1615919000290440,1,-1,-5,0,-9,-4,-9,0
1615919000290440,-3,-2,-5,-1,-1,-6,9,-1
1615919000298920,-1,-1,1,-1,6,-1,-6,-1
1615919000298920,-7,-1,2,0,-20,2,0,-1
1615919000313860,5,0,-4,-6,-1,-6,1,0
1615919000313860,-3,-2,-1,2,-3,2,9,0
1615919000321510,1,2,5,-3,2,0,-6,-1
1615919000321510,-1,-2,-2,0,2,0,3,0
1615919000336444,-14,-3,-1,1,11,-2,0,-1
1615919000336444,9,1,0,-6,-34,-3,-13,-2
1615919000337444,3,-3,-10,0,-7,-7,11,1
1615919000337444,-4,2,5,-2,8,1,3,-2
1615919000351441,1,-2,-4,-1,-11,1,-3,-3
1615919000351441,-3,-5,-9,-8,2,-7,2,-1
1615919000358419,3,1,-3,3,7,9,0,3
1615919000358419,-9,-3,2,-2,-5,1,11,0
1615919000375491,4,-1,-2,-1,6,4,-6,0
1615919000375491,-3,-1,-3,0,1,-6,5,0
1615919000382082,1,-3,-3,-4,6,-1,-4,0
1615919000382082,9,-1,-2,1,-13,0,3,-1
1615919000404993,-10,-2,4,1,6,-1,-1,-3
1615919000404993,-2,-2,-2,-3,7,-1,-5,-1
1615919000405924,0,-1,-1,-3,-18,-10,-6,-1
1615919000405924,-1,-2,-3,-1,19,12,4,-1
1615919000410887,4,0,2,0,-7,-2,10,-2
1615919000410887,-4,-1,5,5,13,-4,-7,-2
1615919000418872,-4,3,-1,-2,-5,-1,6,0
1615919000418872,6,-1,-6,-1,-5,-7,-6,-2
1615919000433148,-2,0,-6,-3,-7,-4,4,1
1615919000433148,-5,-6,-4,-5,11,6,7,-3
1615919000441782,4,-1,-1,2,-2,6,2,0
1615919000441782,-7,-3,2,0,-5,2,-9,-2
1615919000456836,5,1,-4,0,-3,3,14,5
1615919000456836,-2,-2,-2,-5,-5,-5,-4,-1
1615919000457861,-3,-1,5,6,3,-1,-5,-1
1615919000457861,0,-1,-5,-4,10,-3,3,-1
1615919000471564,-4,-2,1,-6,-12,-3,-3,-3
1615919000471564,7,5,0,3,-4,1,0,2
1615919000478401,1,-3,-5,-3,1,4,-7,-2
1615919000478401,4,0,5,1,-3,-3,13,2
1615919000493936,4,2,-2,1,7,2,-4,-1
1615919000493936,-3,-2,-1,-3,-1,-5,3,-1
1615919000502133,-1,-1,0,0,3,-7,-3,-2
1615919000502133,6,-2,0,2,-7,0,3,-1
1615919000516984,-6,-1,1,0,3,-1,-3,-4
1615919000516984,4,-2,-3,0,-2,2,-5,-1
1615919000516984,-3,4,7,4,3,3,3,-2
1615919000516984,-6,-3,-3,-2,-2,4,-6,-1
1615919000530771,5,1,-3,1,2,-3,-7,-2
1615919000530771,-5,-1,-5,-3,-5,8,-4,-2
1615919000538928,-1,-1,5,-5,1,-8,1,0
1615919000538928,-9,-3,-4,1,-6,-10,3,0
1615919000553947,0,0,3,-1,1,1,-30,-1
1615919000553947,3,1,2,-1,6,-7,0,-3
1615919000561876,8,-2,-3,-2,-13,9,-2,0
1615919000561876,-14,-1,-5,-3,-8,-1,-6,-5
1615919000576079,0,-1,2,1,10,-7,8,-1
1615919000576079,10,0,2,2,-3,2,1,1
1615919000584278,-12,-2,-7,-2,0,-12,-14,-3
1615919000584278,9,1,-1,0,-1,7,11,3
1615919000591359,0,-1,-2,-4,0,3,1,-2
1615919000591359,-2,-1,-1,-1,-5,-3,-10,-1
1615919000598648,-2,0,0,0,4,0,4,-3
1615919000598648,-2,0,1,0,-6,-5,-14,1
1615919000613009,9,0,-3,-1,5,6,9,1
1615919000613009,-14,-5,-2,0,6,-1,-15,-4
1615919000622060,-8,-3,-4,-4,-23,2,22,1
1615919000622060,2,-1,7,6,6,2,-6,-2
1615919000636002,12,2,-8,-4,-3,-17,4,2
1615919000636002,0,3,9,3,1,-1,1,-1
1615919000643898,-2,-3,-5,0,6,3,3,-2
1615919000643898,-5,-1,0,-4,-7,1,0,-3
1615919000650880,-6,-3,-3,3,-6,-8,-4,-1
1615919000650880,-4,0,-1,-4,-2,-9,4,-2
1615919000658834,-2,-2,-2,-6,1,2,-7,2
1615919000658834,10,-3,-6,-2,-4,-12,-10,-3
1615919000673795,-2,-4,-1,-2,0,8,0,2
1615919000673795,3,0,3,1,3,8,22,1
1615919000681796,-4,0,0,1,-12,-10,-19,-3
1615919000681796,-3,-6,-5,-4,-2,-1,4,-2
1615919000695735,-15,-4,5,0,-2,5,9,0
1615919000695735,13,4,-12,-5,-2,6,1,2
1615919000704059,5,-1,17,9,0,-5,-1,-1
1615919000704059,2,-3,-5,-3,10,1,3,0
1615919000711041,-16,1,1,0,-11,-4,-3,-5
1615919000711041,-4,-3,-1,-3,-1,5,-1,1
1615919000718022,15,0,-2,-1,0,-2,-4,0
1615919000718022,-9,1,2,-1,12,-2,-9,-3
1615919000741958,6,-3,-1,1,-1,2,1,1
1615919000741958,-4,-6,-16,-6,3,-4,-5,0
1615919000742956,6,10,24,8,-8,-2,-28,-3
1615919000742956,-5,1,-2,1,-9,-2,3,1
1615919000755920,0,-4,-2,-2,4,4,-1,-1
1615919000755920,-2,-1,-2,-1,-8,-3,-3,-4
1615919000763899,2,-4,-11,-7,0,4,4,2
1615919000763899,0,1,0,-1,15,-3,5,1
1615919000779197,3,2,1,-2,-17,-4,-16,-3
1615919000779197,3,1,2,3,3,-5,2,2
1615919000780193,-20,-4,-9,-6,5,10,5,-3
1615919000780193,-6,-4,2,-3,-8,-7,-1,-2
1615919000793183,4,-1,-4,2,7,2,10,3
1615919000793183,0,0,0,-1,-9,-7,6,-2
1615919000801274,-3,-2,-4,4,-2,4,-25,-4
1615919000801274,7,-1,-2,-3,-1,-2,11,3
1615919000816235,3,1,5,2,7,0,3,-1
1615919000816235,-8,-5,-1,3,-7,1,-9,-2
1615919000824527,5,4,2,-9,6,-1,6,0
1615919000824527,-7,0,-2,2,-26,-5,-7,-2
1615919000847700,16,-1,-3,-4,8,-4,3,0
1615919000847700,-15,-4,-7,-4,-6,1,9,-2
1615919000847700,5,3,9,11,20,-3,-1,1
1615919000847700,0,-3,1,1,3,7,-6,-2
1615919000853684,-2,1,-1,-5,-7,-3,6,1
1615919000853684,-3,-3,-3,-1,5,6,0,2
1615919000861664,2,-4,-11,-5,-2,4,9,1
1615919000861664,-12,1,1,-6,-9,-18,-3,-6
1615919000876047,-2,-3,2,8,2,5,-15,-3
1615919000876047,-2,1,4,-3,11,-10,0,-1
1615919000884007,1,-5,-10,-6,-35,2,8,0
1615919000884007,-1,2,2,2,11,2,-4,-1
1615919000899583,-25,-3,4,-3,-7,-2,-4,-3
1615919000899583,6,-3,-1,-3,-7,-3,-6,-2
1615919000900422,1,-4,-4,-4,-5,-6,11,1
1615919000900422,3,-1,-5,2,-2,0,-1,-2
1615919000915457,-3,0,-4,-2,14,8,3,-1
1615919000915457,-4,0,5,-1,-5,-6,-13,0
1615919000922133,-7,-3,-1,1,1,-8,2,-4
1615919000922133,4,-2,-6,-3,-2,2,14,-2
1615919000936566,3,-1,3,-1,3,-1,-8,0
1615919000936566,4,0,6,2,-13,0,7,2
1615919000952158,-3,-1,-12,-6,9,-3,-3,1
1615919000952158,-20,-4,-2,4,-2,9,8,0
1615919000958785,3,1,7,-1,-4,2,15,-1
1615919000958785,3,-1,-3,-2,-2,-13,-8,-2
1615919000959767,2,0,-3,-2,-6,5,7,2
1615919000959767,-6,1,6,-1,13,-1,-9,-2
1615919000973777,-4,-5,-9,-1,-1,-9,-7,1
1615919000973777,1,-2,0,-3,3,2,-4,-1
1615919000982128,-7,-3,-5,2,4,3,22,3
1615919000982128,16,3,1,-1,-9,-6,-4,0
1615919000995940,2,1,5,2,-2,-4,-1,-2
1615919000995940,-2,0,0,2,4,2,4,0
1615919001003916,11,0,3,-3,-20,-6,-10,-1
1615919001003916,-2,-2,-3,-2,-1,2,1,0
1615919001018846,-13,-3,-8,-3,-2,-3,12,-1
1615919001018846,0,-3,-5,0,-1,0,-4,-2
1615919001019814,3,6,18,7,9,4,-15,-2
1615919001019814,-3,-3,-4,0,3,-4,2,0
1615919001033736,7,0,-4,0,-9,-1,-1,-2
1615919001033736,-4,-3,0,-8,-7,-5,-11,-3
1615919001041840,-6,-4,-8,0,14,3,8,0
1615919001041840,9,-2,0,0,-2,6,-32,-3
1615919001065259,-6,0,-5,-3,-4,-6,-1,-1
1615919001065259,0,1,6,7,14,-1,-4,-2
1615919001065259,-9,-2,-2,-4,-5,-9,-4,0
1615919001065259,7,2,1,0,3,6,5,1
1615919001079535,19,-1,-6,-3,-9,4,2,0
1615919001079535,-2,2,2,0,-1,-4,-13,1
1615919001080451,3,-4,-2,0,4,-1,7,-1
1615919001080451,-12,-1,1,-4,3,-2,1,-1
1615919001102821,1,-1,-1,-1,-9,-1,-6,-2
1615919001102821,0,-1,-6,-4,5,7,10,-1
1615919001102821,-1,-1,3,5,9,1,-45,-7
1615919001102821,1,4,2,-4,-7,-13,4,3
1615919001115827,-4,-3,8,9,6,1,-4,5
1615919001115827,1,1,-3,-7,-8,0,5,-2
1615919001123802,-3,-2,-3,0,-2,2,3,0
1615919001123802,-6,-1,4,-4,2,4,-3,-4
1615919001138730,4,2,-4,-2,0,8,-5,-3
1615919001138730,9,-1,-2,6,-2,-2,8,5
1615919001139727,-9,-5,-3,-4,3,-7,-4,-3
1615919001139727,4,0,0,0,-3,0,5,1
1615919001162349,-9,0,0,-3,2,-6,12,1
1615919001162349,0,-3,-1,2,5,3,0,-1
1615919001163347,4,3,-5,-2,-4,-2,7,-1
1615919001163347,-4,-5,0,-5,-2,-8,4,-1
1615919001176336,0,-1,-6,1,1,15,-6,-3
1615919001176336,-3,0,4,2,-8,-19,-2,0
1615919001184289,-2,0,-5,-4,-1,-7,10,2
1615919001184289,-1,-2,1,1,-2,4,3,-1
1615919001199271,1,-1,-13,-7,6,-2,-5,-2
1615919001199271,-1,3,5,2,-16,4,0,-2
1615919001200245,-20,-5,-2,2,8,2,2,-4
1615919001200245,4,-2,-7,-5,-14,2,10,-2
1615919001213210,-8,-3,-1,-4,0,-7,-4,-1
1615919001213210,-3,0,-2,2,4,-4,-4,-3
1615919001221189,7,0,3,-6,-1,1,-1,1
1615919001221189,-2,-1,-2,2,-7,6,-3,-2
1615919001236173,-6,-2,4,-1,-3,-10,0,-2
1615919001236173,-2,-2,-7,-4,8,4,-7,0
1615919001244153,4,7,20,5,-5,-5,12,-1
1615919001244153,-1,-2,-1,-1,2,8,-3,0
1615919001259270,4,-1,0,-2,2,-6,-9,-1
1615919001259270,-4,-5,-5,1,-5,2,8,-2
1615919001260266,6,-1,3,1,2,2,-12,-2
1615919001260266,3,-3,-1,-3,0,-7,-4,1
1615919001275225,0,-1,-2,0,-4,-2,6,0
1615919001275225,-7,-2,-3,-1,4,16,2,-1
1615919001281231,0,-1,-6,-3,-7,-7,4,1
1615919001281231,-3,1,0,3,9,-4,-7,-3
1615919001296007,3,0,-1,0,-6,11,2,2
1615919001296007,0,0,2,-1,-8,-15,-4,0
1615919001303958,-1,-3,-6,-2,8,13,11,-1
1615919001303958,-4,-4,-1,2,-6,-12,-31,-7
1615919001318869,-2,-1,-2,-2,-5,0,-3,0
1615919001318869,5,-1,-1,-3,6,5,22,1
1615919001319837,3,1,-6,3,-1,2,-7,-2
1615919001319837,0,2,-3,2,0,0,-9,0
1615919001341933,-4,-3,-3,-6,-4,-5,0,-2
1615919001341933,2,1,7,6,5,9,-9,0
1615919001342896,-6,-7,-11,-5,1,-5,4,-2
1615919001342896,-1,1,6,-1,-7,-4,4,1
1615919001356155,5,2,-2,-4,1,-2,-3,-3
1615919001356155,-3,-1,0,0,-14,-7,-7,-1
1615919001364136,-4,-1,1,-2,1,2,6,1
1615919001364136,3,0,-9,-1,3,6,11,1
1615919001380254,-10,-4,4,0,6,1,0,-1
1615919001380254,9,2,2,-3,-4,-8,-2,0
1615919001381257,-8,-2,-6,-6,-3,-1,-15,-4
1615919001381257,4,-2,-10,3,-8,-2,7,1
1615919001393997,-1,0,14,7,3,1,6,0
1615919001393997,-5,-2,-8,-7,-3,1,-9,-2
1615919001402161,1,-2,3,-5,-6,7,-2,-2
1615919001402161,0,1,3,3,6,-4,10,1
1615919001415864,-2,1,-4,-1,0,-2,4,-2
1615919001415864,1,-1,0,4,1,2,-5,-1
1615919001423791,-9,-1,-1,-3,3,-2,-3,-2
1615919001423791,-2,-2,-6,-8,3,5,13,-1
1615919001439203,14,-2,1,6,3,-3,-39,-2
1615919001439203,-15,1,8,-4,-6,2,6,-3
1615919001440116,13,4,-8,6,15,-9,-1,0
1615919001440116,-4,-4,2,-4,-9,5,6,0
1615919001454007,4,-4,-7,-1,-2,-2,-2,1
1615919001454007,-7,-2,-8,-2,0,0,-1,0
1615919001462133,2,4,11,2,-8,0,9,-1
1615919001462133,-2,0,-1,1,15,4,8,0
1615919001476577,-3,-1,-3,-1,-1,-10,-2,0
1615919001476577,0,-3,-4,-3,-1,-1,-4,-1
1615919001484006,-2,-3,-5,-3,-8,-9,-3,0
1615919001484006,3,-2,0,2,3,4,12,2
1615919001499617,-8,-3,-2,-9,-1,-1,-41,-3
1615919001499617,2,-5,-7,-3,1,-8,8,-2
1615919001499617,5,-1,6,7,-4,0,-4,0
1615919001499617,-1,1,-2,-11,1,1,-7,-4
1615919001513906,-4,-4,-7,-2,-1,-1,17,-1
1615919001513906,4,4,6,0,1,-2,-2,0
1615919001521998,-2,-3,-4,-3,-9,-2,-3,0
1615919001521998,3,0,-4,2,1,-7,-14,1
1615919001536511,3,3,5,4,3,3,6,-2
1615919001536511,6,-2,-2,-2,9,1,-2,-2
1615919001544320,-10,-4,-4,-5,-13,8,7,0
1615919001544320,-12,-2,3,4,-11,-11,-5,-3
1615919001558329,7,0,-3,-4,-1,4,11,1
1615919001558329,-2,1,4,3,12,0,7,1
1615919001566330,-2,-1,-4,-2,-3,-1,7,1
1615919001566330,5,-2,-5,-3,-6,0,-10,-1
1615919001573431,-1,0,0,-1,6,3,14,1
1615919001573431,-5,1,4,1,-21,-4,-6,-2
1615919001582168,3,-1,-2,0,10,4,6,2
1615919001582168,-1,1,0,1,-2,-4,1,-1
1615919001595860,-6,-1,-3,0,8,8,6,-2
1615919001595860,-8,1,-2,-1,-3,0,3,1
1615919001604001,8,-3,1,3,0,-9,-46,-7
1615919001604001,12,-1,-1,3,-4,1,4,-1
1615919001618919,-7,1,4,-9,1,1,7,-1
1615919001618919,0,-3,-5,-2,0,-10,-14,-3
1615919001627103,-13,-2,2,-1,-3,4,5,-5
1615919001627103,2,-2,-2,-4,8,0,-3,1
1615919001633466,2,1,3,4,-6,-5,-10,-2
1615919001633466,2,-3,-6,-1,3,10,-5,-2
1615919001640921,3,-2,1,-3,-3,-11,7,5
1615919001640921,-5,-4,-3,-1,1,11,-2,-2
1615919001655914,-6,-1,1,-4,-14,-22,4,-2
1615919001655914,-9,-4,-5,-1,14,10,-11,-1
1615919001663917,4,5,-2,-1,-14,-3,3,0
1615919001663917,1,-3,1,-1,2,-4,-2,-1
1615919001678117,-3,-5,-2,1,-2,2,6,0
1615919001678117,8,0,0,1,-7,1,2,-1
1615919001687160,-6,-2,-4,-4,8,-2,-6,-2
1615919001687160,8,2,5,3,-7,-6,11,3
1615919001702159,-9,-3,-9,-5,-5,5,3,-1
1615919001702159,-1,-1,7,7,-1,-4,-3,-2
1615919001702793,2,4,7,1,1,0,5,0
1615919001702793,-6,-5,-6,-4,-6,-6,5,-1
1615919001715880,5,3,-2,1,-3,-2,-6,-1
1615919001715880,8,3,4,-3,-5,-6,3,2
1615919001723794,-8,-3,-4,0,-1,5,15,-3
1615919001723794,-19,0,0,2,5,13,-42,-7
1615919001738912,-10,-5,1,3,-7,-13,-1,-2
1615919001738912,11,1,-3,-5,-6,5,1,-1
1615919001747809,-4,-1,-4,-7,4,-3,2,1
1615919001747809,0,0,-1,-1,-3,1,6,-1
1615919001761911,2,0,-2,-1,3,10,2,-1
1615919001761911,-7,0,1,2,-5,-9,-6,-2
1615919001762880,0,-7,-8,-3,-4,2,-4,-2
1615919001762880,-3,0,-4,-2,-3,-2,0,0
1615919001775791,-3,-1,11,9,11,-2,-7,-3
1615919001775791,4,4,-4,-10,-1,-2,14,2
1615919001783874,-18,-1,8,1,-5,6,-7,-3
1615919001783874,9,-3,-1,1,3,-11,28,2
1615919001798902,-8,-3,-8,-7,-11,-14,-32,-4
1615919001798902,-7,1,8,5,6,6,3,-1
1615919001806876,5,-1,0,3,-3,-4,-10,-1
1615919001806876,-4,-2,0,-2,4,-1,-1,0
1615919001821951,-2,-3,-6,-2,6,10,6,-2
1615919001821951,-4,-4,-10,-4,3,-5,4,-2
1615919001821951,1,-1,4,4,-5,-7,-16,-2
1615919001821951,-2,1,2,-3,-11,-4,1,1
1615919001836576,8,-6,-4,2,1,8,16,1
1615919001836576,0,2,-2,-2,-2,1,-3,-1
1615919001843923,10,2,-4,-3,1,-2,17,1
1615919001843923,-5,-3,0,3,5,0,-7,-5
1615919001858889,6,2,-1,1,-2,1,10,0
1615919001858889,1,-3,4,-3,-3,-5,1,-1
1615919001867228,1,-2,-8,-1,2,-4,4,0
1615919001867228,7,2,0,0,6,4,0,1
1615919001882831,-1,-2,-3,-4,-15,-10,-13,-2
1615919001882831,-15,-2,-1,-1,-15,1,-4,-3
1615919001882831,-4,-4,-1,1,7,4,-1,-1
1615919001882831,1,0,-2,-4,-8,-2,-4,-1
1615919001896570,4,-1,4,1,-3,-8,5,0
1615919001896570,-2,0,-4,0,3,8,-3,-1
1615919001903982,5,-2,1,-1,-2,-7,-11,-1
1615919001903982,-5,-2,-2,-1,-8,-4,17,-2
1615919001918446,2,2,0,-5,8,6,-25,0
1615919001918446,1,1,4,-3,-5,-8,0,-1
1615919001926469,-8,-3,-1,4,-3,5,-5,-2
1615919001926469,3,-1,-5,-6,5,-10,-8,-1
1615919001941614,1,1,-2,-1,-2,2,8,-1
1615919001941614,-12,-8,-6,0,10,1,-5,0
1615919001942614,4,-1,-3,-5,-8,-3,-7,-1
1615919001942614,-1,0,3,1,3,0,-6,-1
1615919001956430,-3,-6,-3,0,-4,-2,-11,-1
1615919001956430,9,5,1,0,7,4,0,1
1615919001964409,2,-3,-6,-2,-2,-4,-3,1
1615919001964409,-4,-1,0,7,-7,5,-1,-2
1615919001978535,2,5,10,-2,0,-1,12,1
1615919001978535,-3,-5,-10,-4,-9,-1,-2,-2
1615919001987194,-1,-1,-2,-2,22,2,12,3
1615919001987194,3,0,0,3,-12,0,-10,-3
1615919002001528,-3,-1,-1,2,4,-7,-1,1
1615919002001528,-2,-7,-7,-4,-6,-4,3,0
1615919002002427,7,10,10,2,-2,3,-2,3
1615919002002427,-13,-4,0,0,8,7,-3,-1
1615919002016390,-5,0,-1,-2,-14,-13,15,-1
1615919002016390,3,-2,-8,-7,-4,10,-6,-3
1615919002024408,3,-1,18,18,1,-3,15,0
1615919002024408,0,-1,-5,-6,8,8,-7,-1
1615919002038403,0,0,1,3,-10,3,8,3
1615919002038403,-6,2,0,-2,1,-6,-7,-1
1615919002047204,-3,-4,-11,-5,-1,7,16,0
1615919002047204,-3,3,10,0,6,-7,-2,-1
1615919002061371,4,-3,-4,0,-1,1,-6,-3
1615919002061371,2,1,2,8,-4,-1,4,3
1615919002062343,0,-1,-2,-6,3,-6,-9,-5
1615919002062343,-3,-4,-6,-5,-6,-12,-3,1
1615919002076570,2,1,-4,-11,3,6,-11,0
1615919002076570,1,2,6,8,-3,-3,-21,-5
1615919002084008,1,1,-3,1,2,5,-6,0
1615919002084008,4,-3,1,-2,-1,-9,3,-1
1615919002098922,-3,-2,-5,1,2,-4,7,-1
1615919002098922,-2,-1,-7,-2,0,4,8,1
1615919002106908,-7,-3,0,0,10,-2,-19,-2
1615919002106908,-8,0,-5,-5,-9,3,-3,-2
1615919002121971,0,-1,2,0,-9,-2,11,0
1615919002121971,3,1,2,2,10,1,6,2
1615919002121971,-8,-7,-1,-9,-2,3,-3,-3
1615919002121971,-3,0,0,0,3,-3,-5,1
1615919002136562,-5,-1,-4,1,1,0,6,-1
1615919002136562,7,2,-1,-2,2,-6,-29,-5
1615919002143894,3,1,-7,-9,-25,-1,12,2
1615919002143894,2,-2,10,0,5,4,-5,-2
1615919002158888,-7,-4,4,0,3,11,-3,-1
1615919002158888,-1,-4,-5,-2,-2,-18,3,-1
1615919002167859,-3,-3,-5,0,-2,-1,4,-1
1615919002167859,0,1,-5,-1,-4,-1,3,-1
1615919002181512,6,-1,-5,-2,2,5,-12,-1
1615919002181512,-7,-5,5,-2,-2,-4,-9,-6
1615919002182512,-2,-1,-9,0,8,1,8,3
1615919002182512,4,-1,6,3,-15,-8,-5,-1
1615919002196579,-2,1,1,-4,-9,-8,-10,-2
1615919002196579,3,-6,-6,-4,0,-1,1,1
1615919002203876,3,4,4,-4,-1,2,2,-1
1615919002203876,-3,-3,0,6,7,5,2,-1
1615919002218919,5,0,-5,-4,4,-1,3,1
1615919002218919,-4,1,13,7,-6,2,2,-1
1615919002227208,0,0,2,-1,-5,-4,-7,-1
1615919002227208,2,0,0,1,0,5,9,0
1615919002242039,-2,-2,-6,1,4,0,-13,-2
1615919002242039,0,0,-2,-5,-3,6,24,1
1615919002242791,-3,-2,-1,1,-1,-8,-6,0
1615919002242791,-3,0,-3,-4,-4,6,0,-3
1615919002256134,-2,-3,-8,1,1,-14,1,-1
1615919002256134,1,2,0,-5,1,14,19,3
1615919002264139,-4,1,1,6,5,-3,-13,-4
1615919002264139,5,-2,-10,-3,2,-2,2,1
1615919002278325,-2,0,5,-5,-6,-3,4,-1
1615919002278325,9,-2,-7,-2,13,2,5,2
1615919002287233,-4,0,9,4,-20,-7,-2,-4
1615919002287233,3,-1,-8,-7,4,-2,-12,2
1615919002302159,4,0,11,5,3,0,5,0
1615919002302159,-6,-2,-4,-4,-2,-1,-5,1
1615919002302796,0,-1,-6,-2,1,2,6,-1
1615919002302796,0,-3,-3,-5,2,-3,-4,-3
1615919002317237,4,4,0,2,0,16,8,1
1615919002317237,-8,-1,-2,-2,-11,-25,-11,-5
1615919002324310,0,-4,-4,-2,1,8,-1,0
1615919002324310,0,0,2,-3,-9,-3,7,0
1615919002347763,-3,-3,-5,4,4,1,3,-2
1615919002347763,-7,-1,5,-1,4,9,2,-1
1615919002348760,0,-1,-11,-5,-10,-18,-15,-5
1615919002348760,3,1,5,-2,-1,1,12,2
1615919002361440,-35,-4,-8,-6,6,0,-14,-4
1615919002361440,0,-3,9,6,-10,6,3,-2
1615919002362413,6,-3,-7,-3,7,-1,-5,0
1615919002362413,-5,0,6,9,-10,-6,-8,-1
1615919002385256,6,-1,-5,-4,1,-1,11,1
1615919002385256,-5,-1,3,1,-2,0,-32,-2
1615919002385256,1,2,-3,-5,-6,0,4,-1
1615919002385256,2,-4,-6,3,19,7,-1,0
1615919002398237,0,3,7,-7,-14,1,-4,1
1615919002398237,-2,-4,-3,-1,3,-5,-7,-2
1615919002406312,1,1,6,6,4,-1,-2,0
1615919002406312,-6,-1,-5,-1,0,-5,-21,-3
1615919002422266,0,-4,-4,0,-2,4,22,1
1615919002422266,10,5,1,-7,6,8,4,0
1615919002423264,-3,-2,5,3,-9,-10,-2,2
1615919002423264,-5,0,-3,-2,8,8,0,-4
1615919002445291,-2,-2,-7,-5,1,3,4,2
1615919002445291,6,3,9,6,-9,-13,-33,-5
1615919002445291,1,-2,-4,1,4,6,7,1
1615919002445291,2,1,9,2,0,-1,14,2
1615919002458911,-12,-6,-7,-4,-10,-2,-10,-6
1615919002458911,0,-1,-9,3,10,1,8,0
1615919002467258,-4,-3,2,-6,2,5,-2,-2
1615919002467258,-2,-3,-7,-3,-8,-5,-3,-1
1615919002481578,6,2,5,4,11,2,-13,-1
1615919002481578,-3,-2,-7,-3,-14,-13,16,2
1615919002488911,-8,-1,0,-1,7,4,0,-1
1615919002488911,4,1,-4,-4,-2,2,1,0
1615919002495894,6,0,-1,0,-2,-5,-3,-1
1615919002495894,-1,-2,2,2,-4,-2,1,-2
1615919002503930,2,2,1,-4,2,8,2,0
1615919002503930,-2,-4,-4,3,-3,-2,0,-2
1615919002518024,-5,-1,4,-10,1,-8,1,-4
1615919002518024,-3,1,-1,3,-4,-3,-1,1
1615919002526808,16,3,5,2,-1,2,15,3
1615919002526808,-32,-6,1,2,6,6,-5,-4
1615919002541310,5,0,-3,1,-4,-17,-2,0
1615919002541310,0,-1,-7,-8,2,5,20,1
1615919002549675,-1,0,0,-6,-4,4,-12,-3
1615919002549675,9,0,-2,-1,-2,-9,-8,2
1615919002555886,-4,-4,0,4,-1,4,9,0
1615919002555886,-1,-3,-3,-3,12,5,-30,-4
1615919002563889,1,-1,-8,-4,-14,-14,-5,0
1615919002563889,6,1,10,3,1,1,-1,0
1615919002578847,-4,-2,-1,4,-20,-7,-1,-3
1615919002578847,-2,-1,2,-6,11,2,4,-4
1615919002587278,-6,-3,-2,-2,-10,-2,4,-2
1615919002587278,0,-4,-7,-4,10,3,-5,-1
1615919002601450,7,2,9,10,8,8,2,1
1615919002601450,-2,-1,-12,-8,-16,-10,8,2
1615919002609434,-3,2,13,7,3,-4,1,-2
1615919002609434,-3,2,-4,-6,-3,-1,6,2
1615919002616419,4,-1,-2,6,8,-4,-6,-2
1615919002616419,-7,-6,-4,-1,4,9,-34,-3
1615919002624393,-3,-2,-3,-6,-4,-5,2,-2
1615919002624393,5,1,0,0,-10,-10,-1,1
1615919002638912,0,-4,-11,-3,8,10,-5,0
1615919002638912,-14,5,24,6,-4,-5,9,-3
1615919002647018,4,-3,-9,-3,2,1,-5,1
1615919002647018,2,-3,-2,-4,2,-2,-12,-3
1615919002660872,-2,1,-4,-5,-3,1,7,-1
1615919002660872,-1,-2,-7,-2,-4,-2,10,1
1615919002669779,-1,1,12,4,2,-2,-10,1
1615919002669779,-1,1,-3,-4,-10,0,-11,-2
1615919002685306,-8,-4,-7,-5,1,-3,10,1
1615919002685306,5,0,4,3,-9,-2,-2,1
1615919002685306,-8,-4,-5,0,21,8,5,-2
1615919002685306,10,-1,0,-2,-17,4,5,-2
1615919002698297,7,3,2,-3,11,-1,-4,-1
1615919002698297,-3,-5,-7,-2,-14,-12,4,-2
1615919002707253,2,-2,-6,-1,1,-3,-7,0
1615919002707253,-3,-2,2,1,0,-5,12,1
1615919002730190,1,0,6,4,6,3,-7,-3
1615919002730190,1,1,-8,-2,-9,5,7,0
1615919002730190,-3,0,4,-3,4,-2,1,1
1615919002730190,-1,3,1,0,-3,6,13,-3
1615919002744931,1,0,1,-4,-2,-6,-4,0
1615919002744931,-1,-2,4,6,5,1,4,1
1615919002745831,-7,-7,-4,-4,-14,-5,3,-3
1615919002745831,14,1,0,1,7,0,-1,1
1615919002758160,-14,-1,2,0,-8,-5,-10,-1
1615919002758160,3,-2,-11,1,-4,-1,4,-1
1615919002767209,6,2,10,2,-4,5,3,1
1615919002767209,2,1,3,-3,10,-7,-6,-2
1615919002789920,3,2,0,-3,-7,-2,2,0
1615919002789920,-8,-4,-5,-4,-5,-2,7,-1
1615919002790918,0,-1,-8,-1,4,8,-5,0
1615919002790918,-4,-3,2,2,-5,-12,-3,0
1615919002804712,3,0,2,1,-4,-6,11,0
1615919002804712,-2,-2,-3,-4,6,0,-26,-2
1615919002805709,10,2,13,6,-5,3,8,2
1615919002805709,-30,-6,-5,-4,5,7,-3,-4
1615919002819048,11,1,-5,4,3,-4,7,-2
1615919002819048,3,-2,-2,-6,-3,-3,2,-1
1615919002826730,-1,0,-6,-2,1,-1,-3,-2
1615919002826730,4,0,0,-3,-10,-2,-3,2
1615919002841551,-4,-3,4,-4,-1,-3,-14,-1
1615919002841551,3,0,-8,2,7,4,6,1
1615919002849630,-9,-2,-5,0,-2,-2,-5,-2
1615919002849630,3,1,-1,0,-5,-6,10,0
1615919002864646,-16,-3,-3,-1,-1,-1,0,-5
1615919002864646,6,-2,2,-1,3,2,-38,-5
1615919002865645,-1,-1,-7,-2,-5,-1,13,0
1615919002865645,-21,-3,1,1,5,9,-3,-2
1615919002878612,-3,-3,-3,-3,-10,-10,5,3
1615919002878612,5,0,-5,2,12,-1,7,1
1615919002886585,-2,1,7,1,2,-4,-11,-3
1615919002886585,4,0,-8,-5,2,2,-9,-1
1615919002902792,3,-1,1,-5,-12,7,-4,0
1615919002902792,-10,-2,2,4,1,1,-1,-1
1615919002908778,-1,-4,-8,-4,2,-6,-7,0
1615919002908778,2,0,1,-2,-11,9,3,-1
1615919002924807,5,-2,-2,-4,8,-7,4,0
1615919002924807,7,0,-4,-5,-6,-2,-1,0
1615919002925805,-19,-2,4,7,-3,-1,4,-1
1615919002925805,1,-4,2,-1,2,-2,-5,-1
1615919002938886,3,1,-2,3,3,1,-6,-1
1615919002938886,0,0,0,-8,-5,-3,5,-1
1615919002947279,5,-3,-4,-1,4,8,2,-1
1615919002947279,5,2,4,3,-3,-6,9,1
1615919002960905,-4,-4,-4,-1,0,4,-11,-3
1615919002960905,8,3,8,3,-1,1,9,1
1615919002969727,-17,-4,-11,-4,0,-10,-8,-2
1615919002969727,4,-4,-7,-5,-12,3,-1,0
1615919002984087,3,0,-1,1,4,-7,-4,-1
1615919002984087,10,-2,1,1,-3,4,-10,-1
1615919002985557,-5,2,1,1,-2,0,17,2
1615919002985557,0,-1,-2,-1,4,0,7,-3
1615919003007005,2,1,-1,-6,-9,0,-12,-1
1615919003007005,-8,0,4,4,10,0,18,3
1615919003008003,10,-1,-3,2,-20,-1,-8,-4
1615919003008003,-2,0,1,1,5,-4,6,4
1615919003021562,2,2,2,0,2,0,-12,-1
1615919003021562,-9,-1,-3,-4,-3,-1,-3,-3
1615919003029542,6,-2,-3,-5,-1,-2,4,1
1615919003029542,-5,-2,-2,-2,1,2,-7,-3
1615919003043530,1,-2,1,3,-7,-11,-12,-4
1615919003043530,0,-2,2,-1,0,0,-4,0
1615919003052793,-17,-2,-3,0,4,-3,1,-3
1615919003052793,5,0,-7,-1,-3,-5,-16,0
1615919003058806,-2,1,8,2,-2,5,12,2
1615919003058806,6,1,-1,3,-10,-2,-2,-3
1615919003067248,-8,-4,0,-6,16,-4,-1,-1
1615919003067248,1,-2,-3,-1,-1,-4,8,2
1615919003081449,-1,1,-3,2,6,2,-1,0
1615919003081449,-3,-2,-3,0,6,7,11,-2
1615919003090360,12,2,1,1,-14,3,-4,0
1615919003090360,-3,3,5,-3,4,0,-10,-2
1615919003104032,2,-1,0,-2,-7,-4,8,0
1615919003104032,-24,-5,-7,-6,3,0,-1,-3
1615919003112987,8,-1,-5,-2,-5,0,-2,0
1615919003112987,-1,-3,-6,-2,6,0,6,-3
1615919003119000,0,1,6,3,1,2,-9,3
1615919003119000,-5,-1,2,2,-3,-6,-1,-1
1615919003127979,7,-1,-3,-4,2,-6,2,-1
1615919003127979,3,-5,0,3,-8,0,-3,1
1615919003141455,-5,-3,-9,-9,0,0,1,-3
1615919003141455,-3,-2,-5,-2,6,7,-3,1
1615919003149806,8,1,4,0,-8,-17,-8,1
1615919003149806,8,-2,-5,-2,-6,-4,0,-2
1615919003163638,-21,-3,5,7,3,-2,-7,-2
1615919003163638,3,0,1,1,-4,-5,5,1
1615919003172556,-2,0,-4,-4,3,7,22,-1
1615919003172556,-1,2,2,-3,-8,-7,-8,-1
1615919003178668,3,-3,-5,-8,0,2,8,0
1615919003178668,-2,-1,1,1,-7,1,-9,-2
1615919003187244,-8,-2,-1,1,5,5,-6,-2
1615919003187244,0,-3,-5,1,-4,-5,2,1
1615919003201549,-1,1,4,-1,0,5,-3,-4
1615919003201549,3,-2,2,-6,1,-4,5,1
1615919003210527,3,-1,-3,-3,1,3,-12,-2
1615919003210527,10,3,2,1,16,6,6,0
1615919003223959,0,-3,-5,-1,-17,-7,-10,-3
1615919003223959,-2,-2,-4,-6,-7,1,5,1
1615919003232334,12,-1,-1,2,-2,-4,16,1
1615919003232334,-9,1,1,-1,-2,-7,-25,-6
1615919003238831,-1,0,-5,0,7,5,13,4
1615919003238831,0,1,-2,-1,-7,0,9,-1
1615919003247235,-4,-6,-7,-5,4,3,4,1
1615919003247235,0,2,-1,-5,-1,2,5,-1
1615919003261373,-2,1,6,6,1,-4,-7,-2
1615919003261373,4,-1,-7,3,6,-6,-1,0
1615919003269709,8,0,4,1,-9,-1,-13,-2
1615919003269709,-11,-4,-6,-8,0,-6,-3,-2
1615919003283951,3,2,-1,-1,4,1,4,1
1615919003283951,-2,-1,2,-2,-7,-2,4,1
1615919003292744,4,1,-3,-1,7,3,-14,-3
1615919003292744,-1,0,1,2,-8,-2,27,4
1615919003298828,3,-2,-3,-1,2,1,-1,-1
1615919003298828,-1,1,-7,1,4,-2,-2,-1
1615919003307861,-19,-4,11,2,0,2,-4,-1
1615919003307861,-5,-1,-6,0,-4,-1,-9,1
1615919003320824,2,0,-6,-4,-12,-6,0,-1
1615919003320824,-19,-3,7,-1,4,-19,-13,-3
1615919003329838,-3,2,-3,-1,-9,-4,-3,0
1615919003329838,0,-2,0,2,2,2,-7,-2
1615919003343842,5,-1,-5,6,0,8,-3,0
1615919003343842,3,-1,-2,-6,6,7,-3,-3
1615919003360862,-2,1,1,-3,-3,-15,-1,0
1615919003360862,-6,-3,2,2,-3,5,5,0
1615919003361860,4,-3,-4,0,13,0,-25,-4
1615919003361860,4,-2,-1,0,-15,-7,0,-3
1615919003367266,-3,-1,-1,-5,-3,5,-5,0
1615919003367266,2,0,-5,-1,2,5,1,1
1615919003380868,-3,-1,2,-2,-3,-1,6,1
1615919003380868,-4,-3,0,-1,1,-1,3,2
1615919003389840,2,-6,-4,-3,2,0,-13,-3
1615919003389840,1,0,-9,-4,-8,-7,-1,-2
1615919003403975,7,-2,1,-1,3,5,-5,0
1615919003403975,-3,1,0,0,1,2,9,-2
1615919003412862,3,0,-6,-1,-1,5,5,-1
1615919003412862,-1,-3,7,2,4,-1,9,0
1615919003426983,-2,-1,-1,-1,-10,-11,-6,-1
1615919003426983,6,-3,-4,-4,-2,3,8,1
1615919003428952,-3,0,1,1,-1,1,2,0
1615919003428952,2,-1,7,-1,-1,-7,-7,-1
1615919003440831,-8,0,-2,-4,6,5,16,0
1615919003440831,-6,-4,-1,-2,-13,-6,-4,-1
1615919003455864,4,0,-6,3,4,4,-5,-2
1615919003455864,-4,2,7,2,13,5,-8,-2
1615919003463865,-2,-3,2,0,-2,-1,7,-1
1615919003463865,11,2,-7,-5,-12,3,-3,2
1615919003472962,-5,-3,-3,-2,-2,-6,5,-1
1615919003472962,0,-3,-3,-4,1,5,0,-3
1615919003478946,-1,-1,1,-2,-2,3,-2,-2
1615919003478946,-1,3,2,4,6,-3,-7,-2
1615919003487269,-3,0,6,1,-2,-5,-5,1
1615919003487269,-4,0,-3,-4,-8,-4,-2,0
1615919003501481,-2,-2,-1,0,2,-3,1,0
1615919003501481,13,1,0,-4,-4,-5,6,-1
1615919003510461,-7,-2,-5,2,3,6,-18,-4
1615919003510461,1,-2,-2,-4,-2,-1,2,-1
1615919003523461,2,-1,-4,-5,-1,2,-10,2
1615919003523461,-2,-3,13,10,3,0,0,0
1615919003532404,7,4,3,4,-1,-8,5,-2
1615919003532404,-6,-1,-7,-4,0,-5,-3,0
1615919003538408,7,-1,-8,-4,-19,-9,-16,-3
1615919003538408,-6,-1,1,-2,5,3,1,-2
1615919003547363,-3,-2,2,-7,-11,0,5,0
1615919003547363,8,-1,2,3,9,12,4,2
1615919003561452,-25,0,-4,-6,0,-7,4,-4
1615919003561452,-1,-2,-5,2,1,-3,0,-1
1615919003569799,-2,-2,-1,-2,-3,6,5,0
1615919003569799,12,2,1,1,-5,-5,-13,-1
1615919003583674,-8,-1,-2,1,-5,-4,10,-1
1615919003583674,-7,-2,-4,-3,7,11,-6,-1
1615919003592793,-1,0,5,2,-7,-9,-4,2
1615919003592793,0,-2,-1,0,1,3,7,-3
1615919003606883,1,-1,0,6,5,2,-1,-1
1615919003606883,-2,2,-2,-3,-1,0,-10,-3
1615919003608878,-7,-4,-5,2,7,-5,7,0
1615919003608878,0,-1,0,2,-6,-3,-5,-1
1615919003621561,4,4,3,1,2,6,1,1
1615919003621561,-20,-6,-3,-7,-5,-2,12,-1
1615919003630040,10,0,-6,-7,-4,2,-39,-4
1615919003630040,-10,1,2,5,-1,-11,-1,-4
1615919003643856,1,-1,1,0,3,0,6,1
1615919003643856,6,0,-3,0,1,-2,-10,-2
1615919003652792,5,-2,-4,-2,-7,4,9,-1
1615919003652792,-2,0,-1,0,-1,2,-6,-3
1615919003667936,3,-1,3,7,-4,0,-18,-1
1615919003667936,-2,0,5,-3,-2,-3,15,2
1615919003668810,1,2,-3,-3,-3,-6,5,0
1615919003668810,8,-1,-3,3,8,5,-2,4
1615919003680912,-17,-1,2,-2,-15,-13,14,-2
1615919003680912,4,0,2,-2,3,4,-15,0
1615919003689808,-3,0,-1,0,6,-4,2,-3
1615919003689808,-6,-4,-5,-11,-8,-1,0,0
1615919003703997,8,-1,3,4,0,6,11,-1
1615919003703997,-1,-2,-2,3,-8,-12,-6,-1
1615919003713101,2,5,0,-10,1,0,1,-3
1615919003713101,-10,-5,-8,-1,0,-3,3,-2
1615919003727074,3,-2,3,-5,5,4,-7,0
1615919003727074,5,-1,0,4,6,10,3,-1
1615919003729044,-3,-2,-4,-2,-5,-7,-2,-1
1615919003729044,1,-5,-4,-1,-12,-16,-10,-5
1615919003741144,-17,-2,0,0,2,6,2,-3
1615919003741144,13,6,-1,-3,11,9,25,1
1615919003749798,-7,-4,-1,3,-6,-1,-15,-1
1615919003749798,4,-1,-1,-5,-3,3,0,1
1615919003763852,-1,-2,-5,-5,1,-6,-5,-3
1615919003763852,-2,-3,-7,2,4,-6,-1,0
1615919003773002,-7,0,4,3,0,8,8,0
1615919003773002,-2,-1,4,-1,-9,-3,0,2
1615919003786977,9,-2,-7,-1,7,-3,-14,-3
1615919003786977,-3,-2,-2,-10,-1,0,-4,-1
1615919003795513,2,1,9,4,-1,-2,-10,0
1615919003795513,-4,0,1,2,10,9,0,-1
1615919003801530,2,0,0,-5,-14,-5,12,2
1615919003801530,-4,-3,-7,0,-3,-11,-4,-3
1615919003810508,-9,-7,-3,-10,-5,0,-6,-3
1615919003810508,6,3,2,8,4,4,8,-1
1615919003823546,2,1,3,-1,4,2,-5,0
1615919003823546,-2,-1,-2,-4,-7,-2,-10,-4
1615919003832793,3,-2,-3,-5,0,-1,12,3
1615919003832793,-4,-1,1,4,-3,0,0,-1
1615919003847910,2,0,-2,0,8,0,-2,-1
1615919003847910,-3,-6,-8,0,-9,0,3,-1
1615919003848808,2,7,16,6,2,8,6,1
1615919003848808,-12,-4,-4,-4,1,-9,-9,-1
1615919003860902,-7,-2,0,-1,5,2,-5,-1
1615919003860902,7,-5,-5,-3,-11,-3,-9,-1
1615919003869851,0,2,-3,5,9,1,36,3
1615919003869851,6,3,2,-7,-7,-5,-12,0
1615919003883991,3,-3,-4,2,-3,-7,4,0
1615919003883991,4,1,8,2,0,0,-7,0
1615919003892794,-2,-2,-1,-3,6,3,4,-1
1615919003892794,-1,-3,-1,-3,-3,-6,5,0
1615919003907881,1,-1,-8,-2,-10,-2,-3,0
1615919003907881,-3,0,-1,-3,-5,-2,4,0
1615919003908878,-1,-4,-4,4,10,-1,-6,-2
1615919003908878,-1,2,0,-6,-15,-5,3,-1
1615919003921569,7,-1,-7,-7,1,4,-5,-2
1615919003921569,-7,2,5,3,-5,-2,-2,0
1615919003929860,1,-3,-4,5,-2,2,-10,-2
1615919003929860,-22,-4,-5,-6,6,-5,12,-1
1615919003943842,6,2,8,3,-5,-6,-27,-3
1615919003943842,-2,0,-4,-1,1,6,-14,-3
1615919003952373,0,-1,-5,-9,0,-7,-5,1
1615919003952373,2,-1,2,6,-6,6,3,1
1615919003967275,-3,-3,-2,-3,1,1,4,1
1615919003967275,-7,-1,-1,2,1,-5,-3,0
1615919003973395,1,1,2,-4,-5,-11,-12,-3
1615919003973395,5,-1,-6,6,4,4,-2,1
1615919003981625,-14,0,8,-6,-11,3,17,-1
1615919003981625,-1,-3,-2,0,6,5,-6,-1
1615919003990520,1,-1,2,4,-6,-7,12,0
1615919003990520,5,-2,0,-2,-9,-6,-16,-1
1615919004003974,-17,-2,3,0,13,-5,0,-4
1615919004003974,2,-1,-5,-5,-9,2,4,2
1615919004012860,-6,-1,3,-3,-1,0,-13,-2
1615919004012860,-1,0,-7,-1,2,2,1,-1
1615919004026045,10,0,-2,7,5,-1,-1,1
1615919004026045,0,0,-3,-10,-5,9,16,0
1615919004035053,-1,0,1,4,1,-18,0,1
1615919004035053,-6,-5,-2,-2,-1,7,0,-2
1615919004041504,6,-1,-3,-2,1,2,4,-1
1615919004041504,-2,-1,-5,0,6,-2,6,0
1615919004049801,3,0,11,5,2,-4,-4,-2
1615919004049801,-7,-1,5,0,-4,0,-5,-1
1615919004063872,9,-2,-7,-2,-1,-3,-5,-1
1615919004063872,-2,1,3,-1,-3,-3,0,-3
1615919004072788,-8,-3,-6,-7,0,5,-6,-4
1615919004072788,0,0,-2,3,8,-2,6,-1
1615919004086622,3,1,4,-9,-6,9,-23,-3
1615919004086622,-1,-2,-2,1,-19,-10,-4,0
1615919004094782,0,-2,-6,-7,8,9,1,0
1615919004094782,4,2,-1,-1,-3,-14,-3,-2
1615919004101041,-1,-1,-3,5,2,3,16,2
1615919004101041,-1,-5,-10,-5,1,-5,-5,-3
1615919004117287,-1,4,19,11,-3,6,-2,-1
1615919004117287,3,-2,-9,-7,-1,1,5,-3
1615919004123151,1,0,-5,-2,-3,-1,5,-1
1615919004123151,-2,3,5,2,4,-8,-2,-1
1615919004132225,1,-4,-12,-5,-15,-2,4,0
1615919004132225,1,0,5,3,15,5,-8,0
1615919004146594,-2,-1,-4,0,-19,-6,1,0
1615919004146594,0,0,1,-6,17,7,-8,-1
1615919004154911,-1,-2,-6,2,-5,-9,12,1
1615919004154911,4,0,-1,-1,1,0,-36,-5
1615919004160934,-2,0,4,0,-5,2,6,0
1615919004160934,0,-2,0,3,-4,-4,-10,-2
1615919004169825,0,1,-5,-3,-3,0,1,-1
1615919004169825,1,-4,-2,2,-1,3,5,0
