timestamp,emg1,emg2,emg3,emg4,emg5,emg6,emg7,emg8
1615918626932590,1,1,-3,-4,-3,1,2,1
1615918626932590,1,1,1,-4,-3,2,-3,0
1615918626933563,-3,-2,-2,2,5,-3,2,-6
1615918626933563,-1,-1,-3,-2,-1,0,-3,-1
1615918626954533,1,-1,-1,-1,-4,4,0,2
1615918626954533,0,-2,0,4,0,0,0,-2
1615918626956503,-1,-2,-2,-1,2,-4,-2,-3
1615918626956503,2,1,-1,-2,-1,2,-2,1
1615918626968551,-2,-1,1,-1,0,0,0,1
1615918626968551,-2,-1,-1,-2,0,-5,-2,-2
1615918626983788,-1,1,0,-4,-3,1,0,0
1615918626983788,0,0,0,-1,-1,0,1,3
1615918626992727,0,-3,-2,3,4,0,-7,-4
1615918626992727,-2,1,-3,-3,-1,-3,1,-1
1615918626993723,0,-2,-1,-3,-4,0,7,7
1615918626993723,0,-2,-2,1,-1,-2,-5,-3
1615918627014665,-3,-2,-1,1,3,-4,-1,-3
1615918627014665,1,-1,-2,-2,-1,5,2,2
1615918627016183,2,-1,-1,1,-1,0,0,0
1615918627016183,-4,-4,-4,1,1,-2,-3,-6
1615918627028274,-1,0,0,-1,-2,-2,1,3
1615918627028274,0,1,0,-2,-3,1,-5,0
1615918627037227,-4,-1,-1,1,1,-4,-2,-5
1615918627037227,-3,-1,-2,-4,-2,-4,-1,-1
1615918627052380,1,-1,-3,-4,-2,3,-4,2
1615918627052380,-3,-1,0,2,-1,-2,0,-1
1615918627054375,-3,-3,-2,0,-3,-10,-5,-6
1615918627054375,1,1,1,-1,-3,4,-2,2
1615918627075408,0,-1,-1,-3,-4,0,1,1
1615918627075408,-2,-3,-1,2,2,-5,-2,-5
1615918627076408,0,0,-1,-2,-2,5,-1,0
1615918627076408,0,1,0,-2,-4,-1,-1,-1
1615918627088804,-3,1,-1,1,2,-5,-1,-4
1615918627088804,-1,-1,-2,1,1,0,1,-2
1615918627097312,1,1,0,-5,-4,1,0,3
1615918627097312,-2,-2,-2,2,1,0,7,2
1615918627112804,0,-1,-1,-1,1,-1,0,-6
1615918627112804,1,1,-3,-6,-5,2,-3,7
1615918627113804,-1,-1,-3,-1,-2,2,-4,0
1615918627113804,-2,-3,0,1,4,-5,-2,-3
1615918627135298,0,-1,0,-4,-2,2,0,0
1615918627135298,-1,0,0,2,-2,4,-4,0
1615918627136298,-3,-2,-2,1,3,-6,22,-1
1615918627136298,1,0,-1,-1,1,4,-2,0
1615918627157770,0,1,0,-1,-3,3,0,3
1615918627157770,-2,-2,-2,-2,-1,-6,-4,-8
1615918627159540,-1,-1,-1,1,-1,-2,-5,-6
1615918627159540,0,0,-2,-5,-6,-1,-1,1
1615918627180325,-1,-1,-1,-1,-4,-4,-4,-1
1615918627180325,-1,-1,-1,-3,0,-6,-2,-4
1615918627181325,0,0,-1,-2,0,4,-4,1
1615918627181325,1,0,-2,-2,-4,0,-5,2
1615918627194901,-2,-4,0,0,0,-5,7,1
1615918627194901,-1,-1,0,0,3,-3,-2,-1
1615918627197816,0,1,0,-1,-7,1,-4,2
1615918627197816,-2,-1,0,3,2,-1,-1,-5
1615918627208995,-1,1,-3,-4,-1,-3,1,-3
1615918627208995,0,-3,0,-2,-2,1,1,6
1615918627217034,0,-1,-2,1,2,-1,-3,-3
1615918627217034,-4,-3,-2,2,2,-2,-2,-5
1615918627232822,-1,1,-1,0,-2,1,-2,0
1615918627232822,-1,0,1,-4,-4,0,1,3
1615918627233821,-3,-2,-2,1,0,-4,-7,-8
1615918627233821,-1,0,0,-2,0,-1,0,1
1615918627253821,1,2,0,0,-4,4,0,3
1615918627253821,-4,-2,-2,1,1,0,-2,-6
1615918627262853,-1,-1,-2,0,3,-3,0,0
1615918627262853,3,2,0,-3,-2,2,3,2
1615918627268364,-1,0,0,0,0,-2,-1,-1
1615918627268364,-2,-3,-1,1,1,-5,-3,-7
1615918627277313,-1,1,-1,-4,-4,5,2,4
1615918627277313,0,-1,1,1,-5,-2,-5,-2
1615918627292788,-3,-5,-2,-1,1,-6,-8,-7
1615918627292788,-1,1,-1,-2,-3,1,3,-2
1615918627294808,1,1,1,-3,-2,5,1,3
1615918627294808,-1,-1,-1,-1,-1,-6,-2,-4
1615918627315371,-2,-4,-2,-5,-4,-5,3,-1
1615918627315371,0,1,1,-1,-3,-1,-6,1
1615918627316370,-1,-2,-2,1,-1,-1,-1,0
1615918627316370,-1,-2,-1,1,2,-3,-1,-5
1615918627337719,-1,2,0,-1,-2,1,-4,-7
1615918627337719,2,0,-1,0,-3,4,7,6
1615918627338714,-4,-3,-1,0,3,-5,-4,-6
1615918627338714,-2,-2,0,0,-1,1,0,0
1615918627352695,1,-1,0,-2,-2,3,-2,4
1615918627352695,-1,-1,0,0,2,0,-2,-5
1615918627353700,-1,-2,0,0,0,-3,-1,-2
1615918627353700,0,0,-2,-1,-3,6,-3,3
1615918627375409,0,-1,-1,1,2,-1,1,-1
1615918627375409,-3,-2,-1,0,5,0,-1,-4
1615918627376989,1,-1,-2,-5,-4,-3,-3,3
1615918627376989,0,-1,-4,-3,-2,0,2,2
1615918627404780,-4,-4,-1,3,2,-1,-1,-3
1615918627404780,-1,0,-1,0,0,0,1,1
1615918627412821,1,-1,0,-2,-2,4,0,1
1615918627412821,-2,-4,-1,0,2,-2,-1,-4
1615918627413820,0,-1,-4,-1,0,-1,-1,-2
1615918627413820,1,1,0,-4,-10,-7,7,5
1615918627415819,-1,-1,-2,0,2,-1,-4,-2
1615918627415819,-2,-2,-1,0,4,-4,-1,-5
1615918627435086,-1,0,0,-3,-3,0,2,4
1615918627435086,-1,-1,0,0,0,2,-3,0
1615918627436706,-1,0,-3,2,1,-1,0,-5
1615918627436706,-1,0,-1,-4,-3,-2,1,1
1615918627457633,2,0,-2,-2,-3,2,0,1
1615918627457633,-2,-3,-3,1,4,-2,-4,-4
1615918627458633,-2,0,-1,-1,0,-3,0,-3
1615918627458633,0,-1,-1,0,-4,2,-3,1
1615918627472284,-2,0,0,-1,-5,-4,-2,-1
1615918627472284,-4,-2,-3,1,9,-3,-1,-4
1615918627478151,0,-1,0,-1,-8,1,-2,1
1615918627478151,1,0,-1,-2,-3,3,2,4
1615918627495792,-3,-2,0,1,4,-4,-2,-6
1615918627495792,0,2,-1,-3,-6,3,-2,-1
1615918627497786,0,1,1,-3,-6,0,0,4
1615918627497786,-2,-3,-2,3,2,-6,-1,-6
1615918627517322,-2,0,-1,0,1,-1,1,0
1615918627517322,0,-1,0,-1,1,2,-3,2
1615918627519319,-2,-2,-1,0,-1,-1,-2,1
1615918627519319,-3,-2,-3,-1,-2,-2,9,0
1615918627532280,2,1,0,-2,0,0,-2,0
1615918627532280,1,-2,-1,-2,-2,1,2,0
1615918627538927,-3,-2,-2,2,5,-5,-2,-5
1615918627538927,0,0,0,-4,-1,2,0,1
1615918627554997,1,-1,-2,-1,-4,1,-5,4
1615918627554997,-2,-3,-2,1,-1,-3,-6,-5
1615918627555970,0,0,-2,-2,1,-1,0,-2
1615918627555970,1,0,1,-2,-4,3,0,0
1615918627584412,0,-1,0,0,-2,-3,-4,-1
1615918627584412,-1,-3,0,1,1,-3,-1,-4
1615918627586410,-1,1,-1,-1,-2,5,5,2
1615918627586410,-2,0,-1,3,-2,-5,-8,0
1615918627591391,-4,-4,-4,-3,0,-6,-2,-6
1615918627591391,1,0,-2,-2,-4,1,2,1
1615918627599064,-1,0,-2,-2,-5,-3,-3,-4
1615918627599064,-2,-3,0,1,1,-6,-5,-4
1615918627615419,-1,-2,-2,-1,-2,0,2,-1
1615918627615419,0,2,0,-2,-3,1,1,2
1615918627616418,-1,-3,-1,1,0,-2,5,4
1615918627616418,-3,-2,0,0,3,-1,-10,-9
1615918627637356,0,1,0,-3,-4,-1,2,4
1615918627637356,0,-2,-1,-2,-3,-2,-1,1
1615918627639377,-3,-2,0,3,4,-3,0,-4
1615918627639377,0,-1,-1,-6,-14,-3,2,1
1615918627651810,-1,0,0,-1,-1,4,-1,2
1615918627651810,-3,-2,0,1,0,-5,-4,-5
1615918627658682,-2,-1,-2,-1,2,-4,-5,-4
1615918627658682,0,1,-2,-2,-1,1,2,3
1615918627675371,1,-2,0,2,-2,-2,-2,-3
1615918627675371,-3,-3,-2,-1,3,-2,-1,-5
1615918627677077,1,1,2,-2,-2,3,-2,2
1615918627677077,-1,-2,0,3,2,3,-1,-1
1615918627697854,-3,-2,-3,1,4,-3,1,-4
1615918627697854,0,-1,0,-1,-1,0,2,0
1615918627699825,-1,0,1,-3,-2,2,-1,3
1615918627699825,-3,-4,-2,0,-3,-3,-2,-4
1615918627711574,-2,0,0,-2,1,1,-3,-1
1615918627711574,2,1,-1,-3,-3,5,1,5
1615918627735947,-1,-2,-4,-2,-2,-3,-3,-2
1615918627735947,0,-1,-2,-1,4,-6,-1,-2
1615918627735947,-2,-2,0,-2,-6,2,-3,-1
1615918627735947,0,0,0,-3,-7,-3,2,8
1615918627737665,-3,-3,-3,0,3,-3,4,-2
1615918627737665,0,1,-1,-2,0,3,3,2
1615918627757777,0,-1,-2,-1,-1,4,0,3
1615918627757777,-3,0,-1,2,2,-2,-5,-5
1615918627758801,0,0,-1,-3,-1,-2,0,-2
1615918627758801,1,1,1,-4,-2,-1,0,3
1615918627771466,-1,-1,0,0,0,-2,-3,-3
1615918627771466,-2,-3,-2,0,2,-4,-2,-4
1615918627778432,0,0,1,-3,-4,-2,-1,0
1615918627778432,-2,-1,-2,0,-3,2,-2,-3
1615918627794771,-4,-3,-1,-1,3,-3,-2,-5
1615918627794771,-2,0,-2,-2,-1,3,3,3
1615918627796740,2,-1,1,-1,-4,4,-4,-1
1615918627796740,-4,-3,-2,-1,0,-8,-5,-5
1615918627817659,1,1,-1,-3,-2,-1,1,1
1615918627817659,-1,2,1,-3,-6,1,1,0
1615918627818656,-1,-4,-1,4,3,-1,-2,-1
1615918627818656,0,1,-2,1,4,-1,0,-1
1615918627840345,1,-1,-1,-1,-4,1,-2,1
1615918627840345,-1,-1,0,-1,-3,-3,-1,-1
1615918627841345,-3,-2,-2,0,0,-5,-13,-14
1615918627841345,0,0,-2,-1,2,1,2,0
1615918627862695,1,-2,-1,-1,-7,1,-9,0
1615918627862695,-4,-5,-1,4,3,-3,19,-10
1615918627863694,-2,1,0,0,0,0,2,3
1615918627863694,2,-1,1,1,0,7,2,3
1615918627877777,-1,-1,-2,-1,0,-9,-5,-5
1615918627877777,0,0,-4,-2,1,-3,0,-1
1615918627878686,0,0,0,-2,-3,5,5,5
1615918627878686,-1,-1,0,0,-6,-1,-3,-1
1615918627890735,-2,-2,-1,2,1,-3,0,-2
1615918627890735,1,-3,-2,-2,-3,3,-5,0
1615918627899707,0,-1,-1,-2,-2,-8,0,3
1615918627899707,-4,-1,-1,-1,4,-3,-4,-3
1615918627914820,0,1,-1,-1,-4,-1,2,1
1615918627914820,-3,1,0,-2,0,4,-5,2
1615918627916761,0,-2,0,0,-1,1,-2,-4
1615918627916761,-1,-1,-2,-1,0,-3,1,-2
1615918627936984,1,1,-1,2,0,3,3,3
1615918627936984,-1,-1,1,0,0,-2,-4,-2
1615918627938981,-3,-2,-4,2,1,2,-1,-3
1615918627938981,0,0,-1,-3,-3,3,1,2
1615918627950949,-1,0,-1,-2,0,2,9,5
1615918627950949,-1,-2,-2,3,1,-4,-17,-9
1615918627959924,0,0,-2,-1,-1,2,3,0
1615918627959924,0,-1,0,-2,-9,-1,0,3
1615918627974884,-2,-2,-2,2,4,-1,-1,-2
1615918627974884,-2,-1,-2,-2,1,-5,-1,-1
1615918627976879,2,0,2,-5,-3,2,1,4
1615918627976879,-1,-3,-2,-1,-1,0,-1,-3
1615918627996826,-3,-2,0,-1,1,-5,-4,-6
1615918627996826,1,-1,0,-1,-1,0,1,4
1615918627998820,-1,-2,-1,-3,-4,0,0,2
1615918627998820,-2,0,-1,0,4,-6,-2,-5
1615918628010882,-1,-1,0,-2,0,1,-1,-3
1615918628010882,0,2,0,0,-2,3,1,4
1615918628019858,-3,-3,-1,1,-3,-7,-4,-3
1615918628019858,-1,-2,-2,-3,2,-1,0,-2
1615918628034818,0,-1,-2,-3,-1,1,0,2
1615918628034818,0,-1,-1,-3,-1,1,0,0
1615918628036813,-3,-2,-2,0,2,-5,-4,-5
1615918628036813,2,3,-1,1,0,1,0,3
1615918628057756,1,-1,-2,0,-4,-1,-1,-1
1615918628057756,-3,-5,-1,3,1,-3,-2,-4
1615918628058755,0,2,-1,-2,-1,-2,-1,0
1615918628058755,0,0,-1,-3,-3,2,1,5
1615918628070745,0,-3,1,0,1,-3,-12,-14
1615918628070745,-2,0,-2,-3,-1,-4,1,-6
1615918628079697,0,1,0,-1,-3,2,3,3
1615918628079697,-1,-2,0,1,-2,-4,-5,-2
1615918628094687,-2,-1,0,-2,2,-3,0,-2
1615918628094687,1,0,-1,-2,-1,3,0,3
1615918628096680,0,-1,1,-2,-2,2,-4,0
1615918628096680,-3,-3,-2,2,3,-3,1,-5
1615918628117563,-3,1,-1,-3,-2,0,1,3
1615918628117563,1,-1,-1,-3,-5,3,-1,1
1615918628119557,-1,-3,-2,-4,-1,-3,2,-2
1615918628119557,-2,0,0,-1,0,0,-2,-2
1615918628140120,1,0,-1,-3,-2,1,2,2
1615918628140120,1,-1,-1,0,1,0,-3,0
1615918628141117,-2,-2,-3,0,3,-4,-2,-7
1615918628141117,1,0,1,-3,-3,3,0,2
1615918628155055,-1,0,1,-3,-6,-2,-1,3
1615918628155055,-2,-3,-2,0,1,-4,-1,-4
1615918628156078,1,1,-2,-1,0,2,2,0
1615918628156078,1,0,-1,-3,-3,2,-2,3
1615918628177758,-4,-2,-2,3,1,-4,-17,-13
1615918628177758,0,-2,-2,-2,-1,-1,-1,0
1615918628178849,-2,0,0,-2,-2,2,5,2
1615918628178849,-2,0,0,0,-2,-2,-3,-2
1615918628191450,-3,-3,-3,-2,0,-3,-2,-1
1615918628191450,1,-1,-1,-1,-3,-2,21,3
1615918628199981,0,-3,-1,-1,0,2,-6,-7
1615918628199981,-2,-4,-1,1,3,-4,-1,-4
1615918628214966,0,-1,-1,-2,0,0,4,3
1615918628214966,0,1,-1,-4,-3,0,-5,1
1615918628216936,-1,-3,-1,3,0,-4,-1,-2
1615918628216936,-1,0,-2,-2,2,-2,1,-2
1615918628237811,0,-1,1,-2,-9,2,2,3
1615918628237811,-2,-1,-2,0,0,-4,-7,-2
1615918628238683,-3,-3,-2,-1,3,-5,-2,-2
1615918628238683,-1,1,0,-1,2,3,-3,0
1615918628250656,0,-1,0,-1,-3,-2,2,2
1615918628250656,-3,-1,-1,3,1,-3,-4,-5
1615918628267728,1,-1,0,-1,-2,1,0,1
1615918628267728,1,0,-1,-1,-4,0,1,1
1615918628290346,-2,-2,-2,1,6,0,10,3
1615918628290346,-1,1,0,-2,-2,-1,0,-1
1615918628292343,1,1,-2,-3,-3,3,-1,5
1615918628292343,-3,-3,-1,-1,-1,-1,-4,-5
1615918628297825,-3,-2,0,2,5,-1,2,-2
1615918628297825,0,1,1,-3,-5,1,-3,0
1615918628298687,0,-1,1,1,-2,2,-3,1
1615918628298687,-1,-1,-2,0,-1,-5,0,-2
1615918628320635,2,0,-3,-4,-5,-2,-3,-2
1615918628320635,-2,-2,0,-1,-1,5,0,2
1615918628325620,-3,-2,0,-2,-1,-5,-7,-3
1615918628325620,0,1,1,1,1,1,5,-4
1615918628334598,0,1,-1,-2,-2,2,0,0
1615918628334598,-1,-2,-2,-1,3,-1,-3,-3
1615918628336591,-5,-2,0,1,-1,-6,-1,-4
1615918628336591,-1,0,-2,-4,-6,0,-2,0
1615918628357867,0,-2,-1,1,-1,-1,-1,-1
1615918628357867,-1,-3,-1,2,2,-5,-3,-3
1615918628358878,0,2,-2,0,0,1,4,0
1615918628358878,-1,-1,-1,-6,-10,-2,-1,1
1615918628380455,-1,-3,0,0,-3,-2,-2,-3
1615918628380455,-2,2,-2,-5,1,-4,-2,0
1615918628381588,1,-1,-1,-5,0,4,1,3
1615918628381588,-1,0,0,1,1,1,-1,-2
1615918628394960,-3,-1,-1,-1,1,-2,-2,-4
1615918628394960,-1,-1,0,-1,-4,0,9,8
1615918628400946,2,0,-2,-2,-4,-2,0,0
1615918628400946,-3,-2,-1,1,5,-2,-1,-3
1615918628417837,-1,-2,-2,0,-2,-4,-1,0
1615918628417837,2,-2,-1,-1,-4,1,0,2
1615918628418834,-3,-2,-3,3,1,-4,-3,-4
1615918628418834,-1,-3,-1,1,-1,1,0,-1
1615918628440213,-1,1,0,-4,-2,2,0,4
1615918628440213,-3,-1,-2,-1,-4,-3,-6,-6
1615918628441237,-2,-1,-1,0,1,-5,-3,-4
1615918628441237,0,2,0,-1,-3,1,-2,2
1615918628454542,0,1,-1,-2,-1,0,-1,1
1615918628454542,-5,-2,-1,2,9,-6,-4,-11
1615918628461059,-2,0,-2,-3,-9,-1,-1,-2
1615918628461059,2,0,-1,2,1,1,1,4
1615918628477940,-2,-3,-2,1,2,-1,-1,-4
1615918628477940,-1,1,-1,-3,0,0,-3,1
1615918628479515,1,1,-2,-1,-1,2,1,3
1615918628479515,-2,-5,-3,1,3,-2,-1,-4
1615918628499805,-2,-2,-2,0,3,-2,-2,-3
1615918628499805,1,0,1,-2,-3,4,1,3
1615918628507760,0,-2,-1,-2,-1,3,-2,1
1615918628507760,-1,0,-3,-2,2,-3,-3,-3
1615918628513743,0,0,-1,-2,0,4,-4,0
1615918628513743,-1,-2,-1,-5,-11,-3,1,2
1615918628520724,-3,-2,0,1,3,-4,-6,-8
1615918628520724,-1,-2,-1,-2,-1,0,1,1
1615918628545448,-2,1,0,-2,-4,0,0,2
1615918628545448,-2,-3,-1,-1,1,-2,-4,-4
1615918628546950,-2,-1,0,-1,1,-1,4,0
1615918628546950,0,2,0,-3,-4,0,1,3
1615918628567052,0,-2,-1,-1,-4,-8,-3,-1
1615918628567052,-4,-3,-2,1,2,-5,-2,-4
1615918628569048,0,1,-1,-1,1,1,1,2
1615918628569048,-1,0,0,0,4,2,0,-3
1615918628574033,-3,-2,-1,-1,-10,-3,-1,-3
1615918628574033,0,0,1,0,1,4,0,-2
1615918628581617,0,-1,0,-2,-3,4,0,2
1615918628581617,-3,-4,-3,0,1,-4,-4,-4
1615918628597809,-1,-2,-1,0,3,-2,-2,-3
1615918628597809,1,2,0,-2,-7,1,5,0
1615918628599704,-1,-1,-3,1,0,0,-2,-1
1615918628599704,-1,0,-1,-2,1,-2,-1,-4
1615918628619804,0,0,-1,-1,1,-1,3,3
1615918628619804,-1,-2,-2,-3,-5,0,-4,1
1615918628621799,-2,-1,-2,2,2,-5,-1,-3
1615918628621799,0,0,-3,-4,-4,-2,-11,-3
1615918628634717,0,0,-3,-3,-5,2,-3,3
1615918628634717,0,-3,1,2,4,0,-4,-2
1615918628648793,0,2,-1,2,3,2,1,-2
1615918628648793,0,1,0,-4,-5,4,-1,3
1615918628657771,-1,0,0,0,0,-2,0,-2
1615918628657771,-2,-2,-1,1,5,-1,-1,-3
1615918628658769,-1,-3,-1,-3,-7,0,-2,3
1615918628658769,-1,0,1,-1,-10,-2,0,6
1615918628680435,-2,-3,-1,2,4,-4,-1,-6
1615918628680435,-1,0,-4,-4,-2,0,1,0
1615918628681434,1,1,0,-2,-3,3,3,2
1615918628681434,-2,-3,-1,1,-2,-3,1,-2
1615918628694761,-1,-2,-1,1,2,-2,1,-3
1615918628694761,0,0,-2,-3,-3,-1,-3,3
1615918628700701,0,-1,-2,-2,-1,-1,-3,1
1615918628700701,-2,-1,-2,2,2,-6,-1,-7
1615918628717654,0,2,0,-1,0,2,2,2
1615918628717654,0,2,0,-1,-1,-2,0,1
1615918628718680,-2,-1,0,1,-2,-7,-5,-4
1615918628718680,-1,-1,-1,-3,-1,-1,7,-2
1615918628739482,2,1,1,1,-3,4,1,3
1615918628739482,-2,-2,-4,0,0,-1,-3,-3
1615918628741510,-4,-1,-3,-2,1,-7,4,2
1615918628741510,-1,-1,1,-1,-3,-2,-15,-8
1615918628753470,-3,-1,1,0,-4,1,-1,1
1615918628753470,-2,-2,0,0,4,-5,0,-4
1615918628762421,-1,-1,-1,-2,5,2,-1,0
1615918628762421,1,1,0,-3,-10,-1,3,6
1615918628777706,-3,-2,-4,-1,4,-3,-1,-7
1615918628777706,1,0,-1,0,-2,2,-2,1
1615918628778702,-2,-2,0,-3,-5,1,1,-1
1615918628778702,-2,-2,-2,1,4,-2,2,0
1615918628799744,-2,-1,-2,-2,3,-1,-3,-3
1615918628799744,0,1,0,-1,-5,2,2,4
1615918628801703,0,-2,-1,0,0,-1,-3,-3
1615918628801703,-3,-4,-2,-1,-1,-8,0,-3
1615918628822645,-1,0,-1,-2,-5,0,-3,1
1615918628822645,1,-2,0,-1,-2,1,-1,1
1615918628823732,-3,-2,0,2,2,-3,0,-5
1615918628823732,0,1,0,0,-1,0,-4,-1
1615918628844758,2,0,-1,0,-2,0,0,2
1615918628844758,-2,-3,-1,-3,2,-9,-5,-3
1615918628846778,-1,-1,-1,-2,-8,-3,4,-3
1615918628846778,2,0,0,-4,-1,3,2,2
1615918628860191,-1,-4,-1,0,1,-1,3,1
1615918628860191,0,0,-1,3,10,-1,0,-5
1615918628861219,0,0,1,-4,-11,-1,-1,2
1615918628861219,0,-1,-1,4,3,3,-1,-1
1615918628873835,-3,-2,-2,-1,0,-7,1,-4
1615918628873835,-1,-3,-1,-2,-3,-1,1,0
1615918628882490,3,0,1,-1,0,2,-2,3
1615918628882490,-2,-1,0,0,0,-3,3,-5
1615918628897931,0,0,1,-2,-2,-4,-2,-3
1615918628897931,0,0,-1,-2,-6,1,0,3
1615918628899707,-1,-1,0,1,4,0,-4,-1
1615918628899707,-2,-2,-2,-1,0,-6,-2,-3
1615918628920093,0,0,1,-1,1,1,0,3
1615918628920093,-1,-2,0,-2,-6,0,-2,-2
1615918628921876,-2,-3,-2,1,3,-6,-4,-4
1615918628921876,0,-1,-2,-2,1,-1,-1,1
1615918628942132,0,0,-2,-1,-5,-1,0,1
1615918628942132,-1,-3,-2,2,2,0,1,-3
1615918628942697,0,0,-2,-1,9,3,-5,-2
1615918628942697,0,1,0,-3,-7,3,3,5
1615918628957314,-2,-1,-1,0,2,-1,-3,-2
1615918628957314,-3,-3,-1,0,4,-2,-4,-5
1615918628957314,0,0,-1,-4,-9,1,14,8
1615918628957314,2,-1,0,0,1,0,-3,-2
1615918628979722,-3,-1,-2,-1,-1,-8,-3,-5
1615918628979722,-1,0,-2,0,-5,0,0,1
1615918628979722,1,0,0,-3,-2,-2,0,2
1615918628979722,-4,-1,0,1,1,1,0,-6
1615918629001731,0,-2,-1,0,0,2,1,2
1615918629001731,2,1,-1,-3,-3,1,1,4
1615918629002704,-1,-2,-2,2,0,-3,-5,-4
1615918629002704,-3,-1,-2,-2,4,-2,0,-3
1615918629017000,1,2,1,-2,-2,3,-2,-1
1615918629017000,-3,-1,-1,-1,-2,-1,-2,-2
1615918629018000,-2,-3,-1,2,3,-3,-5,-5
1615918629018000,-2,1,-1,-4,-4,-3,-2,2
1615918629039781,1,2,-1,-1,4,4,0,3
1615918629039781,-2,-2,0,0,-4,-6,-1,-2
1615918629039781,-3,0,-1,1,0,0,0,-1
1615918629039781,-2,-1,0,-4,-1,-1,-3,1
1615918629061494,-2,0,0,-1,-5,-2,0,-1
1615918629061494,-2,-4,-1,-2,0,-4,-9,-7
1615918629062493,0,0,-2,-3,-3,2,1,2
1615918629062493,0,-2,-1,0,-3,1,-1,0
1615918629076744,-4,-4,-1,-1,5,-2,0,-5
1615918629076744,2,1,0,0,2,5,2,3
1615918629077767,0,0,1,-2,-5,0,-1,0
1615918629077767,-1,-1,-1,1,2,-3,-12,-12
1615918629099757,-4,-2,-2,-3,-2,-2,-3,1
1615918629099757,1,1,1,0,-4,2,5,3
1615918629099757,-1,1,0,2,2,0,-5,-3
1615918629099757,-2,-3,-4,1,8,-1,4,-1
1615918629121719,0,0,-1,-4,-15,-5,-4,-1
1615918629121719,0,-1,0,0,-1,-2,-1,-3
1615918629122716,-3,-2,-2,1,4,-4,-1,-4
1615918629122716,0,1,0,-1,-2,1,0,5
1615918629136433,1,-2,-1,-2,-1,4,0,1
1615918629136433,-2,-4,-3,-2,2,-7,0,-3
1615918629137340,-1,1,-1,-2,-2,-4,0,-3
1615918629137340,2,2,0,2,-4,2,2,5
1615918629160327,-1,1,-1,1,1,-3,-5,-4
1615918629160327,-2,0,-1,0,0,-3,-2,-5
1615918629160327,0,-1,0,-5,-3,2,0,2
1615918629160327,-2,-1,-1,-2,-5,-4,-5,-1
1615918629182285,-1,-2,-1,2,5,1,3,-2
1615918629182285,-1,0,1,-2,-1,1,1,2
1615918629182698,0,-2,-2,-2,-3,-1,-2,3
1615918629182698,-4,-4,-2,1,5,-1,0,-4
1615918629204695,0,0,-3,-3,-5,1,0,-2
1615918629204695,1,0,0,-3,-1,0,9,8
1615918629205673,-3,-1,-2,0,0,-5,-8,0
1615918629205673,0,-1,-1,-1,-5,-4,1,0
1615918629219644,0,1,0,0,1,3,2,3
1615918629219644,-1,2,-1,-5,-5,-8,-2,1
1615918629219644,-3,-3,-1,-1,2,-2,-3,-6
1615918629219644,1,-1,-3,-1,0,3,2,2
1615918629249900,1,-2,-1,-2,-3,2,-2,0
1615918629249900,-2,-4,-3,2,0,-5,-5,-4
1615918629250871,0,-1,1,-3,1,0,0,0
1615918629250871,2,2,3,-2,-4,1,-2,1
1615918629255887,-3,-3,-2,0,1,-2,0,-2
1615918629255887,-1,-1,-3,0,3,0,-3,-4
1615918629264144,0,0,0,-2,-4,-1,2,2
1615918629264144,-1,0,-1,-1,-2,2,2,0
1615918629279783,-3,-1,-1,-1,1,-8,-2,-5
1615918629279783,-1,-2,-1,-2,-3,3,0,0
1615918629279783,0,-2,-1,0,-3,1,0,2
1615918629279783,0,-4,0,1,3,-1,0,-2
1615918629301898,-1,-2,1,-4,-4,-1,0,-1
1615918629301898,0,1,0,-4,-3,2,-2,0
1615918629302919,-1,-2,-2,0,1,-3,-1,-3
1615918629302919,0,-2,-2,-1,3,-3,-2,-4
1615918629317009,0,0,-1,-1,-1,3,-1,0
1615918629317009,-1,0,0,-1,-2,1,3,8
1615918629318007,-2,-1,-2,0,3,-5,-14,-13
1615918629318007,-1,0,1,-4,-3,0,1,2
1615918629347933,0,-1,-2,0,1,-3,-1,1
1615918629347933,-3,-2,-2,0,1,-5,-1,-5
1615918629348747,-1,1,-1,-2,-2,2,4,2
1615918629348747,-1,-2,-3,-2,-3,-2,-1,1
1615918629379317,1,0,-2,-2,-2,-2,-3,-2
1615918629379317,-2,-2,-2,0,1,-5,-4,-6
1615918629379317,0,1,0,0,-5,1,2,4
1615918629379317,-2,0,0,-1,-1,0,-2,-1
1615918629381682,-3,-3,-1,2,0,-4,-1,-4
1615918629381682,1,1,-3,-3,1,3,-1,-1
1615918629400590,0,-1,-1,-2,-4,0,-2,-1
1615918629400590,-2,-2,-3,1,2,-3,0,0
1615918629402609,0,2,0,0,0,1,0,1
1615918629402609,1,0,1,0,-3,4,-1,1
1615918629402609,-1,-2,-1,1,2,-2,-1,-4
1615918629402609,-2,-2,-1,0,2,-1,1,-1
1615918629421788,0,2,-1,-2,-2,-1,-2,0
1615918629421788,-2,-2,-1,0,0,1,-2,-3
1615918629422674,-2,0,-1,-1,1,-3,0,-1
1615918629422674,0,0,0,-5,-6,-2,-2,-1
1615918629438693,-1,-1,-1,1,-2,0,-1,7
1615918629438693,-1,-2,-1,1,1,-4,-5,-4
1615918629438693,-1,-1,-3,-2,0,-2,5,-1
1615918629438693,-1,1,0,-1,-4,2,1,2
1615918629459747,-1,-2,0,0,3,-2,-3,-4
1615918629459747,-2,-1,-2,0,0,-3,-2,-5
1615918629459747,1,0,-1,-3,-9,3,1,5
1615918629459747,-1,-2,1,0,3,-3,-15,-10
1615918629481886,-2,0,0,0,-2,-2,1,-4
1615918629481886,1,1,2,0,0,8,4,2
1615918629482883,0,-2,0,-2,-3,-1,-1,0
1615918629482883,-4,-3,-3,2,4,-5,2,-5
1615918629495877,-3,-4,-2,-4,-5,-1,-1,-1
1615918629495877,1,2,-1,-2,-5,2,-4,-1
1615918629503871,-2,-3,-1,-2,-1,-6,0,-1
1615918629503871,-2,1,0,-1,0,0,1,-1
1615918629527475,1,-1,0,-1,0,3,0,2
1615918629527475,-2,0,-3,-1,-2,-5,-1,-1
1615918629528474,-1,-2,0,1,4,-2,-1,-3
1615918629528474,2,0,-2,-2,-5,2,2,4
1615918629542286,0,-2,0,0,-2,-2,-2,-2
1615918629542286,-3,-2,-2,2,0,-2,-2,-2
1615918629542699,0,0,-2,-3,-1,-1,2,-2
1615918629542699,0,0,0,-2,-3,4,-3,3
1615918629555690,-2,-1,-1,0,2,-2,-1,-4
1615918629555690,0,-1,0,-1,5,0,-1,-1
1615918629564767,1,1,0,-2,-1,4,-1,2
1615918629564767,-1,-2,-1,0,-2,-4,3,-1
1615918629579160,-2,-2,-4,-1,4,-2,-1,-6
1615918629579160,0,1,0,-5,-5,0,-4,2
1615918629580158,-1,-1,-1,0,1,2,2,3
1615918629580158,-4,-1,-1,0,0,-5,-15,-15
1615918629602170,-1,2,-3,-4,-1,-3,0,1
1615918629602170,0,1,0,-1,-3,0,0,3
1615918629602170,-1,-2,-2,1,6,-2,-4,-4
1615918629602170,-1,-2,-1,-2,-5,-2,3,1
1615918629616203,0,0,-2,-2,-2,0,4,4
1615918629616203,-2,-2,-1,-1,0,-4,-2,-3
1615918629624835,-3,-4,-4,0,2,-4,-4,-5
1615918629624835,-1,1,-1,-2,-2,5,3,2
1615918629638974,0,-1,0,3,-1,4,-2,1
1615918629638974,0,-3,-5,-3,-1,-4,1,-3
1615918629639971,-2,0,1,0,-1,2,-1,0
1615918629639971,1,0,-3,-4,-3,1,2,5
1615918629678572,-3,-1,1,3,2,-3,-4,-5
1615918629678572,-3,-1,-1,0,5,0,1,-1
1615918629680089,0,0,1,-2,-7,0,-2,3
1615918629680089,0,-2,-2,1,1,3,-1,0
1615918629681577,-3,-1,0,0,3,-4,-1,-4
1615918629681577,-1,3,-1,-4,-4,1,0,2
1615918629684570,0,0,0,-1,-1,0,-1,-1
1615918629684570,-3,-4,-2,0,2,-5,0,-3
1615918629699681,1,0,0,-3,-8,-3,-1,-1
1615918629699681,2,0,-1,0,-2,0,11,8
1615918629699681,-1,-3,-1,3,0,0,-10,-6
1615918629699681,0,1,-1,-1,5,0,1,0
1615918629721656,0,0,-1,-4,0,3,0,2
1615918629721656,-1,-4,-2,1,-2,-2,-2,-3
1615918629722654,-3,-1,-1,1,2,-4,3,-4
1615918629722654,0,1,-1,-2,-7,-5,0,2
1615918629736700,1,0,1,-2,-1,-4,-3,2
1615918629736700,-2,-4,-1,2,0,-2,-4,-5
1615918629744804,1,2,-1,-1,-1,-1,0,1
1615918629744804,-2,-1,0,-1,-3,1,3,1
1615918629759832,-2,-2,-2,2,1,1,-3,-6
1615918629759832,-2,0,-1,0,0,1,-2,-3
1615918629759832,1,1,-1,-4,-5,0,1,3
1615918629759832,-1,0,-1,1,5,-3,-1,-1
1615918629781804,0,-2,-2,0,-4,-5,0,-3
1615918629781804,-1,0,1,-4,-2,1,-1,1
1615918629782702,-2,-2,-3,-5,0,-6,-1,1
1615918629782702,-1,-1,-3,-1,5,-6,-2,-4
1615918629795772,0,2,0,-3,-4,4,2,2
1615918629795772,2,-1,-1,-1,-5,-2,-7,0
1615918629804751,-3,0,1,0,1,-1,3,-5
1615918629804751,-1,0,-2,-1,-1,0,-1,-1
1615918629819708,1,-2,0,0,-2,1,0,1
1615918629819708,-2,-2,-2,-3,-2,-3,0,-4
1615918629819708,-1,-2,-3,1,4,-1,-3,-2
1615918629819708,3,0,-2,-2,-5,3,4,5
1615918629841488,-2,-3,1,2,2,1,0,-1
1615918629841488,-2,0,0,2,2,-2,0,-3
1615918629842486,0,-2,-3,-3,-5,-5,-4,-2
1615918629842486,-1,2,0,0,-4,1,0,0
1615918629855661,-3,-1,-1,-1,2,-6,-1,-2
1615918629855661,-1,-1,-2,-3,0,1,-3,-2
1615918629864792,0,-1,0,-3,-5,3,3,6
1615918629864792,-2,-4,-1,-2,-3,-4,-4,-2
1615918629879727,-1,-1,0,1,6,-4,1,-3
1615918629879727,0,-1,1,-4,-12,-2,0,-1
1615918629879727,0,0,1,-1,-3,-1,-2,0
1615918629879727,-2,-2,0,-1,1,-5,-3,-5
1615918629901777,1,2,-3,-4,-4,-1,-3,0
1615918629901777,-1,-1,-2,-2,1,-3,0,2
1615918629902799,-2,-1,-2,-1,0,0,-3,-3
1615918629902799,-2,-1,0,-1,1,1,1,0
1615918629916470,-4,-2,-1,-1,-2,5,2,0
1615918629916470,-1,-3,-3,0,1,-2,-1,-1
1615918629932315,-2,-1,0,-1,0,-4,-2,-2
1615918629932315,1,0,1,-3,-3,-1,-2,2
1615918629938749,0,-1,-1,1,-1,2,7,7
1615918629938749,-3,-1,0,3,4,-4,-8,-8
1615918629939748,-1,2,-3,-1,-1,3,2,1
1615918629939748,-1,0,0,1,-4,-3,-2,2
1615918629962316,-2,-2,0,2,2,-1,-2,-4
1615918629962316,-1,-1,-2,-3,-2,-4,2,1
1615918629962696,0,0,2,-1,1,2,0,3
1615918629962696,-2,-2,-3,-2,-10,-6,-3,-3
1615918629984797,0,0,-2,-1,2,-4,-4,-5
1615918629984797,0,-1,0,-1,-2,0,2,1
1615918629986310,0,0,1,3,3,4,-1,-3
1615918629986310,-3,-2,-3,1,4,-3,1,-5
1615918629999804,-1,0,-1,-3,-5,-2,-5,3
1615918629999804,2,0,-2,-1,-2,2,-1,1
1615918629999804,-2,-4,-2,-1,-1,-7,-2,-3
1615918629999804,-1,0,1,-2,0,2,-8,2
1615918630021801,1,1,-1,-4,-4,3,9,6
1615918630021801,-2,-1,0,1,4,-1,-15,-8
1615918630022699,-4,-1,1,0,1,3,3,-3
1615918630022699,0,-2,-2,0,-5,-3,-3,2
1615918630045469,-2,-2,0,1,-2,0,-4,-2
1615918630045469,-1,-2,-2,1,3,-3,5,-1
1615918630045469,1,-1,1,-1,1,0,-3,0
1615918630045469,1,-1,1,-1,-7,2,3,2
1615918630059805,-3,-3,-3,-1,4,-5,-7,-7
1615918630059805,-1,-1,-1,-3,-1,0,6,2
1615918630059805,-1,-1,-3,-3,-8,-2,-2,-1
1615918630059805,-1,-2,-2,0,6,-2,2,-3
1615918630082277,-1,-1,1,0,1,-2,-2,-4
1615918630082277,0,0,1,-2,-7,0,-2,3
1615918630082700,0,-1,-2,0,-1,-4,0,-1
1615918630082700,-6,-2,-2,1,6,2,4,-11
1615918630105348,-2,0,-2,-4,-6,-1,-2,-2
1615918630105348,1,1,2,0,-1,-1,-5,1
1615918630106349,-1,-2,0,0,2,-3,2,-2
1615918630106349,-1,0,-2,-3,-2,-1,-1,-2
1615918630119383,0,1,-1,-2,-3,1,-2,1
1615918630119383,-2,-1,-1,2,2,-1,8,3
1615918630120380,-2,-2,-2,0,1,-2,-7,-6
1615918630120380,0,-1,-2,-4,-4,0,-1,4
1615918630141674,0,0,-1,0,1,1,1,1
1615918630141674,-1,-3,-3,-1,0,-5,0,-4
1615918630142671,-1,0,1,-1,-5,-1,0,2
1615918630142671,-2,-1,2,0,-2,-2,-1,-1
1615918630164812,-2,-3,-1,1,3,-4,-5,-8
1615918630164812,-2,-1,-3,-3,-1,0,-3,-3
1615918630164812,1,2,0,-5,-4,2,1,3
1615918630164812,-2,-1,-1,1,3,0,-3,-3
1615918630179816,-3,-1,-1,2,1,-1,3,-2
1615918630179816,1,1,1,0,-2,2,0,2
1615918630179816,-1,0,-2,-1,-6,-2,2,-5
1615918630179816,-1,-3,0,1,1,-6,0,-4
1615918630210519,1,1,0,-3,-2,3,-1,1
1615918630210519,-1,-1,-1,-2,-1,3,0,1
1615918630210519,-2,-2,-3,-3,3,-7,-2,-3
1615918630210519,0,1,0,0,0,0,-1,0
1615918630232778,1,-1,-1,-2,-5,0,-5,-1
1615918630232778,-2,-2,0,2,0,-6,-2,-3
1615918630232778,0,-1,-3,0,4,-1,-1,-2
1615918630232778,0,1,1,-3,-3,3,-5,-2
1615918630239779,-2,-1,1,0,0,-1,-3,0
1615918630239779,-2,0,-3,-3,-1,-4,-1,-3
1615918630239779,1,-1,-1,-2,-4,-2,-3,1
1615918630239779,0,-2,-2,-1,0,2,-1,3
1615918630261889,-3,-3,-1,1,3,0,-11,-2
1615918630261889,-2,-1,-1,-2,-1,-1,17,-4
1615918630262788,-3,-2,-2,-6,-5,0,1,1
1615918630262788,-1,-3,-1,1,3,-3,-3,-4
1615918630283814,-1,0,-3,-1,1,-2,-1,-1
1615918630283814,1,-1,-1,-2,-4,3,-5,2
1615918630284811,-1,-3,0,2,-1,1,-3,-3
1615918630284811,-5,-3,-2,0,0,-3,1,-5
1615918630298781,0,0,0,-4,-4,0,3,2
1615918630298781,-1,1,0,1,-1,1,-5,-1
1615918630299803,-2,-2,1,3,4,-5,-1,-5
1615918630299803,0,-1,0,-2,-3,-2,-2,2
1615918630321984,2,-1,-1,0,-5,2,3,1
1615918630321984,-2,-2,0,1,2,-1,-1,-2
1615918630322892,-1,-2,-3,-1,1,-1,-5,-1
1615918630322892,1,2,0,-1,-4,1,4,5
1615918630344776,-2,-3,-2,-2,-2,-6,-12,-11
1615918630344776,-2,-1,-2,0,2,-1,-2,-4
1615918630344776,-1,0,0,-2,-2,2,2,3
1615918630344776,0,0,-3,-4,-5,-1,-2,1
1615918630360711,-3,-3,1,2,4,-3,3,-5
1615918630360711,0,-1,-1,-5,-5,1,-4,3
1615918630361709,0,-1,2,0,-1,5,5,1
1615918630361709,0,-3,-2,-2,2,-4,-5,-4
1615918630382306,0,0,2,0,0,1,3,1
1615918630382306,-1,0,1,0,-1,4,0,3
1615918630382692,1,1,-3,0,-4,-1,1,0
1615918630382692,-3,-1,-3,0,3,-6,1,-4
1615918630404831,3,2,-1,-1,-1,3,3,4
1615918630404831,-1,-1,-1,1,0,-2,-2,-7
1615918630404831,-2,-2,-1,3,5,0,-2,-6
1615918630404831,-1,-1,-1,-3,-2,2,-1,1
1615918630419800,2,1,-2,-2,-5,-1,1,4
1615918630419800,-1,-2,0,1,2,-4,-3,-2
1615918630419800,-2,-1,0,-2,-6,0,-1,0
1615918630419800,-1,1,1,-1,-5,0,1,1
1615918630441891,-3,-3,-1,-1,0,-4,-1,-2
1615918630441891,0,-2,-2,-1,2,-3,0,-3
1615918630442888,-2,0,-1,-3,-3,-2,6,8
1615918630442888,0,-1,0,2,0,2,-9,-2
1615918630464004,-4,-3,-3,2,1,-8,-2,-4
1615918630464004,-1,-1,0,-5,-7,-3,-3,1
1615918630464927,1,-2,0,-1,-1,3,3,3
1615918630464927,-4,-2,0,0,2,1,2,-2
1615918630487948,-2,1,0,-1,-1,-2,-1,-1
1615918630487948,-1,0,-3,-2,-4,-1,-3,1
1615918630488056,-2,-3,-3,0,-1,-4,-7,2
1615918630488056,-2,-2,-1,-1,1,-2,3,-4
1615918630510542,0,0,0,-3,-1,3,1,1
1615918630510542,-1,-3,1,1,3,-1,-1,1
1615918630510542,-5,-2,-3,-4,-10,-10,-6,-8
1615918630510542,1,1,-2,-2,-3,-2,0,1
1615918630524820,0,-1,-1,-2,-2,2,3,3
1615918630524820,-1,0,0,1,2,-6,-3,-4
1615918630524820,0,-1,0,-3,4,2,-6,-2
1615918630524820,1,0,-2,-2,-3,0,1,2
1615918630538777,-1,-2,-3,-2,-2,-2,1,-1
1615918630538777,-2,-2,-3,-1,-2,-2,0,-2
1615918630547368,2,1,-2,1,3,3,-2,-1
1615918630547368,0,-1,0,-1,-2,0,0,2
1615918630562294,-2,-2,-1,1,2,-4,7,1
1615918630562294,1,0,-2,-3,0,2,-6,-4
1615918630562294,1,-1,0,0,-1,5,3,2
1615918630562294,-2,-2,0,0,7,-4,-3,-5
1615918630583954,-3,-1,-2,-4,-1,-4,0,-6
1615918630583954,-1,-1,-2,-4,-9,0,0,4
1615918630592254,-1,-1,-1,1,3,-1,-1,-3
1615918630592254,-2,-1,-2,3,3,0,0,-2
1615918630599723,1,-1,-4,-7,-2,2,-5,3
1615918630599723,-1,0,-1,4,1,4,1,0
1615918630599723,-3,-3,-1,1,1,-4,-5,-8
1615918630599723,0,2,-2,-2,-4,3,1,1
1615918630621708,0,-2,-1,-3,-2,1,-2,0
1615918630621708,0,-2,-1,1,2,-2,1,-3
1615918630622671,0,0,-1,-2,1,-3,0,1
1615918630622671,0,1,0,-2,-5,1,0,4
1615918630644739,-1,-2,3,6,-2,2,-1,-1
1615918630644739,-2,-2,-1,0,1,-4,-3,-2
1615918630644739,0,0,1,0,-3,2,1,3
1615918630644739,-2,-1,-2,-4,-3,-2,-2,-1
1615918630659727,-1,-2,-4,1,1,-5,-6,-5
1615918630659727,0,0,-2,-3,-2,0,8,-1
1615918630659727,1,0,0,1,1,1,-2,1
1615918630659727,-2,-2,-2,-1,-3,-3,-2,-5
1615918630681878,-2,1,1,-2,-2,-2,-1,7
1615918630681878,0,1,-1,-4,-4,-3,-3,0
1615918630682777,-2,-1,-3,-1,0,-5,-2,-2
1615918630682777,-1,-3,0,2,5,1,0,-4
1615918630704523,1,1,0,0,-1,6,5,5
1615918630704523,-4,-2,1,1,-3,-1,-19,-12
1615918630705521,-1,-3,-2,-1,5,-3,-1,-5
1615918630705521,1,1,-1,-5,-5,-4,-2,2
1615918630719361,-1,0,0,-1,-3,-2,-2,-2
1615918630719361,-2,-2,0,-1,2,-3,3,0
1615918630720359,0,0,1,-3,-4,1,0,-2
1615918630720359,1,-1,1,0,1,4,0,3
1615918630741448,-1,-1,0,0,-3,-5,-3,-3
1615918630741448,-2,-2,0,0,3,-2,1,-1
1615918630742418,0,0,-1,-5,-5,1,0,2
1615918630742418,-1,0,-1,-1,-4,-2,4,0
1615918630764777,-4,-3,-2,-1,2,-6,-3,-6
1615918630764777,1,0,-1,-2,-2,4,3,5
1615918630764777,-1,0,-1,-2,-12,-2,-2,1
1615918630764777,-3,-4,-2,3,5,0,-3,-5
1615918630787912,3,1,-2,-4,-2,1,1,0
1615918630787912,2,2,0,0,-3,2,7,2
1615918630788678,-5,-2,-1,2,1,-4,0,-9
1615918630788678,-1,-2,-1,-2,-2,-3,-2,-3
1615918630801706,0,0,2,-4,-3,0,-1,2
1615918630801706,-1,-3,0,-1,-1,-1,-1,1
1615918630802702,-1,0,-1,1,5,-4,-2,-3
1615918630802702,-2,0,-2,0,-2,3,2,1
1615918630824640,0,0,1,-1,-2,0,-1,1
1615918630824640,-2,-4,-2,-1,1,-5,-3,-5
1615918630824640,0,0,0,0,3,2,2,0
1615918630824640,1,1,-1,0,-2,3,-2,3
1615918630838612,-1,-2,-2,0,1,-1,-3,-3
1615918630838612,-2,1,0,-2,-2,-2,2,-3
1615918630846503,3,0,-1,0,1,3,-1,3
1615918630846503,1,-2,2,-1,1,-2,2,-1
1615918630861590,-3,-1,-1,2,0,-4,8,1
1615918630861590,0,0,0,0,-2,2,-1,3
1615918630862589,0,-2,0,-2,3,1,0,2
1615918630862589,-2,-1,-1,1,-7,-7,-3,-5
1615918630884175,-1,-1,-2,-1,0,3,2,0
1615918630884175,0,-1,-1,-2,-1,-2,-3,4
1615918630885342,1,-3,-1,1,-4,-5,-1,-1
1615918630885342,-2,-1,-1,1,9,1,0,-6
1615918630898236,0,-1,0,-5,-11,-1,-5,0
1615918630898236,0,0,0,0,-2,-1,0,-1
1615918630907211,-3,-3,-3,0,2,-1,-4,-6
1615918630907211,1,1,-1,-4,-4,-1,0,3
1615918630921730,-1,2,-1,1,1,0,-5,-1
1615918630921730,-2,-2,-2,1,5,-3,-3,-5
1615918630922696,-3,1,-1,-5,-5,0,1,1
1615918630922696,2,-1,0,-1,-1,1,-2,1
1615918630944259,-3,-4,-2,-1,-2,-6,-4,-5
1615918630944259,-2,-1,-1,1,-2,2,2,-1
1615918630945256,-1,-1,-1,-1,-6,-1,-1,1
1615918630945256,-1,-1,1,1,-1,-1,-2,-1
1615918630959061,0,-1,-2,-1,1,-2,-1,-6
1615918630959061,0,-1,-3,-4,-5,-3,-1,2
1615918630966721,-1,-1,0,-4,-2,1,0,3
1615918630966721,-3,-1,0,-1,2,-4,-1,-4
1615918630981404,1,1,-1,1,7,1,1,0
1615918630981404,1,0,0,-2,-10,3,0,2
1615918630982378,-3,-3,-1,0,0,-5,-3,-4
1615918630982378,-2,0,-2,-1,1,-1,-2,-1
1615918631004222,1,0,0,-2,-3,-1,0,0
1615918631004222,-1,-1,-1,0,1,-1,-1,-2
1615918631019703,0,-2,-3,-1,1,-7,-1,-4
1615918631019703,1,-2,-1,-4,-6,1,-1,5
1615918631021696,-2,0,0,0,-1,2,-1,-1
1615918631021696,-2,-2,-3,0,3,-6,-2,-6
1615918631027230,-2,0,0,-1,-2,1,1,1
1615918631027230,1,1,1,0,-1,4,0,3
1615918631041423,-2,-3,-4,-3,0,-2,-3,-2
1615918631041423,-1,-2,-1,0,0,-3,-1,-2
1615918631042424,0,2,1,0,3,3,2,3
1615918631042424,-1,-2,0,0,-7,-4,0,-3
1615918631064843,-2,-1,0,0,4,-4,-3,-3
1615918631064843,-1,0,0,-3,0,2,1,-1
1615918631064843,2,1,-2,-1,-2,3,5,6
1615918631064843,-2,-2,-3,2,6,-5,-2,-7
1615918631079077,-2,1,-2,0,-4,1,2,0
1615918631079077,-1,0,-1,-3,-1,3,-3,3
1615918631086875,-3,-2,-2,0,1,-5,0,-4
1615918631086875,-1,0,-1,0,4,1,-1,-2
1615918631101857,2,0,0,-3,-10,-3,0,0
1615918631101857,-3,-1,-1,1,7,-3,-1,2
1615918631102831,0,0,-1,-2,-11,-1,-3,-6
1615918631102831,1,-1,0,-3,2,3,3,4
1615918631124790,-1,-2,-1,-1,-2,1,-4,-2
1615918631124790,-2,-1,0,3,2,-1,-2,-4
1615918631124790,-1,2,-2,-2,-1,-3,-4,-2
1615918631124790,0,1,-1,-2,-3,1,-1,0
1615918631148178,-1,-2,0,0,3,-2,2,-2
1615918631148178,-1,-2,-2,-1,-2,1,-2,-2
1615918631149178,0,-1,2,-3,-3,3,0,1
1615918631149178,0,-1,0,1,-3,-6,-4,-2
1615918631162280,-1,0,-1,3,4,-2,3,-5
1615918631162280,1,0,-2,-3,-6,3,4,4
1615918631162280,-1,-2,1,0,4,0,-1,0
1615918631162280,-3,-3,-3,-2,-4,-5,-4,-5
1615918631183821,-1,1,-3,-5,-2,-1,0,2
1615918631183821,-1,1,0,-1,-5,0,-7,-3
1615918631185649,-3,-3,-2,0,3,-5,-3,1
1615918631185649,-1,-1,-1,-3,-1,-2,3,0
1615918631208046,1,-2,-1,-2,-3,5,-4,1
1615918631208046,-2,0,-2,0,-2,-7,0,-1
1615918631208696,-2,-2,-1,1,1,-3,-4,-5
1615918631208696,0,2,-1,-1,-2,1,-1,1
1615918631221810,-2,-1,-1,0,-4,0,2,1
1615918631221810,-3,-2,2,2,4,-1,-2,-2
1615918631222804,1,-1,-1,-3,-3,-1,-1,-1
1615918631222804,-1,-1,-1,3,0,2,1,0
1615918631243894,-1,-1,-3,-1,4,-3,-2,-3
1615918631243894,-1,-2,-2,-2,-2,1,0,-1
1615918631244893,1,0,1,-1,-2,3,-1,0
1615918631244893,-1,-2,-1,-1,-4,-3,-2,-2
1615918631267560,-1,-2,0,2,2,0,-3,-3
1615918631267560,2,0,-1,-3,-4,0,1,2
1615918631268562,0,0,0,1,1,1,1,1
1615918631268562,-2,-2,-2,-1,-5,-7,-5,-4
1615918631282336,0,1,-1,-2,0,-1,-1,-1
1615918631282336,0,-2,-1,-2,-2,0,-2,0
1615918631282695,-2,-2,-3,-1,1,-2,-1,0
1615918631282695,-2,0,-2,-3,1,1,2,-1
1615918631304766,1,-1,-1,-4,-5,-2,-1,2
1615918631304766,-2,-2,-1,1,-2,-4,2,1
1615918631304766,-3,-2,-3,-2,1,-4,-14,-10
1615918631304766,1,0,0,-2,0,4,3,2
1615918631343895,-2,-2,-2,-1,-4,-3,-3,-1
1615918631343895,-2,-2,-1,-3,0,-5,1,-3
1615918631344792,0,0,-2,-3,-4,0,3,3
1615918631344792,1,-1,-1,0,-1,2,0,2
1615918631345789,-4,-2,1,3,4,-1,-1,-5
1615918631345789,-1,0,0,-4,2,-1,-1,-3
1615918631356760,1,0,0,-2,-6,1,2,3
1615918631356760,-3,-1,-1,0,5,-1,-1,-3
1615918631363895,-1,-1,-2,-1,-3,0,2,0
1615918631363895,0,2,-1,0,-1,3,0,3
1615918631364892,1,0,0,0,-2,-2,0,0
1615918631364892,-2,-1,-1,4,2,-6,-3,-2
1615918631388017,-1,1,-1,-1,2,3,0,0
1615918631388017,1,0,-1,-1,-2,3,-2,2
1615918631388703,-2,-2,-2,1,0,-2,1,-6
1615918631388703,-1,-1,0,-2,-1,0,-1,-3
1615918631401486,0,2,-1,-1,-6,-1,-3,1
1615918631401486,-1,-4,-3,0,-1,-2,0,0
1615918631402460,-2,-1,0,0,1,-5,0,-1
1615918631402460,0,-1,-1,-1,-2,4,3,3
1615918631424644,-2,-2,0,-4,-3,-5,-6,-2
1615918631424644,-3,-2,0,1,1,-4,0,-5
1615918631425650,-1,-1,-2,0,0,4,1,2
1615918631425650,-1,0,0,-2,-7,-1,0,1
1615918631447699,-2,-4,-1,3,4,-3,3,-2
1615918631447699,1,2,-1,-3,2,0,-1,0
1615918631447699,1,0,0,-2,-6,-1,-1,3
1615918631447699,-1,-2,-1,-1,1,-4,-5,-5
1615918631461725,-3,-1,-1,-3,0,-3,-1,0
1615918631461725,-1,0,1,1,-3,2,0,1
1615918631469766,-2,-2,-1,-2,1,-3,0,0
1615918631469766,-3,0,-2,-1,0,-4,1,-2
1615918631484733,1,-1,0,-3,-3,1,-1,0
1615918631484733,1,0,1,1,-4,2,-2,0
1615918631485542,-2,-1,0,2,2,-2,0,-4
1615918631485542,-1,-1,-1,-1,2,-1,-2,-3
1615918631507656,-1,-2,-1,0,1,3,0,8
1615918631507656,-2,-2,-3,0,-4,-2,-2,-4
1615918631507656,-2,-3,0,1,1,-1,0,-2
1615918631507656,0,2,0,-3,-3,0,-1,1
1615918631521618,0,-3,-1,2,0,-2,-1,-2
1615918631521618,-3,-3,-1,2,6,1,2,-4
1615918631522616,0,0,-1,-1,-4,2,-1,0
1615918631522616,-1,-3,-1,0,-3,2,-1,1
1615918631544734,-2,-2,-2,-2,2,-2,-2,-4
1615918631544734,0,0,0,-2,0,-2,2,1
1615918631544734,0,-1,-1,-2,-5,2,-14,-9
1615918631544734,0,0,-1,0,1,1,2,-1
1615918631567257,-2,0,-2,-1,-1,-3,0,-3
1615918631567257,-1,1,-1,-4,-4,-2,-2,0
1615918631567257,0,-2,0,0,0,-1,2,2
1615918631567257,0,-4,-2,-1,4,-4,1,-3
1615918631583815,1,0,0,-3,-5,-3,-6,-2
1615918631583815,0,0,0,-1,-2,0,5,0
1615918631583815,-3,-1,-1,1,2,-3,2,-3
1615918631583815,-1,0,-3,-3,-6,-1,-4,3
1615918631604838,1,-2,-2,-1,-6,0,3,1
1615918631604838,0,-3,-1,-1,3,-2,-5,-3
1615918631604838,-1,0,-1,-1,-6,-2,2,0
1615918631604838,1,-1,2,0,2,1,1,1
1615918631634914,-1,-2,-1,1,1,2,-3,-1
1615918631634914,-2,-1,-2,-1,0,-4,0,-3
1615918631635911,-1,-1,-3,-2,4,2,-2,1
1615918631635911,-1,1,-1,-2,-2,-1,-1,0
1615918631641920,0,1,3,5,5,2,0,-2
1615918631641920,0,-1,-1,1,6,0,-1,-2
1615918631642919,1,-1,0,-2,-11,0,2,1
1615918631642919,1,-2,-1,0,0,-1,-4,-3
1615918631664802,-2,-2,-1,-2,1,-2,0,-3
1615918631664802,-1,0,-2,-1,-3,2,-2,-1
1615918631664802,0,-1,-1,-3,2,-1,0,1
1615918631664802,-4,-3,0,1,-1,-3,2,-3
1615918631687178,1,0,0,-3,0,-2,-9,-5
1615918631687178,1,-1,-1,-3,-5,1,0,3
1615918631688201,-2,-4,-2,0,1,-4,-1,-4
1615918631688201,-1,2,0,0,1,-3,1,-1
1615918631701127,0,-3,-2,-2,0,2,4,4
1615918631701127,-2,-3,-1,-1,-4,-3,-9,2
1615918631709726,-2,-1,0,-1,3,1,5,-4
1615918631709726,2,-1,-1,-4,1,6,0,1
1615918631724115,-1,0,-2,0,-6,0,1,1
1615918631724115,-1,0,-2,0,3,-6,-4,-5
1615918631725659,-1,0,-1,-2,0,0,2,3
1615918631725659,-1,-2,-3,1,-6,-1,-2,0
1615918631747842,-2,-3,-1,0,6,-4,-1,-3
1615918631747842,1,0,-1,-3,-6,1,1,-2
1615918631748683,-1,0,-3,-2,-2,1,-1,3
1615918631748683,-2,-2,0,1,-1,-5,-2,-6
1615918631761382,-1,-1,0,-3,1,-3,-1,-2
1615918631761382,-2,2,1,-1,-2,1,-2,-1
1615918631769622,-2,1,-1,0,-1,-3,-3,0
1615918631769622,-3,-3,-1,0,2,-9,-6,-6
1615918631784725,0,0,0,-1,0,2,3,4
1615918631784725,1,-1,-2,0,-4,0,1,1
1615918631785723,-1,-3,-1,-2,0,-5,-1,-6
1615918631785723,-1,1,-2,-3,0,2,0,1
1615918631807168,-1,1,0,-1,-3,4,3,2
1615918631807168,-3,-2,-2,1,5,-3,-1,-4
1615918631807168,-1,-1,-1,-2,0,-1,-3,-3
1615918631807168,1,1,-1,-2,-5,2,0,2
1615918631830459,0,-1,0,-1,-1,-3,-2,-4
1615918631830459,-5,-5,-3,-1,1,-4,-2,-9
1615918631830459,2,1,-1,-2,-3,3,1,3
1615918631830459,1,-1,-1,0,5,1,0,0
