timestamp,emg1,emg2,emg3,emg4,emg5,emg6,emg7,emg8
1615918644917136,-3,-3,-1,-2,-1,-3,-2,-1
1615918644917136,0,0,0,-3,0,1,-2,-1
1615918644926112,0,-3,0,-1,-1,-1,0,-1
1615918644926112,-1,0,-1,-2,-2,-1,-2,0
1615918644940281,0,0,1,-1,0,1,1,0
1615918644940281,-1,0,-1,1,0,1,-1,0
1615918644942304,-1,1,-2,1,1,0,-1,0
1615918644942304,-1,-3,-2,0,-5,-1,-1,-1
1615918644963090,-1,-2,-1,-1,-2,-1,0,-1
1615918644963090,-2,-2,1,0,0,0,-2,-1
1615918644965043,1,0,0,-1,-1,-1,-1,0
1615918644965043,-1,1,0,0,1,0,1,-1
1615918644977118,-2,0,0,-1,0,2,-1,-1
1615918644977118,-2,-1,-2,-2,-3,-2,-1,-1
1615918644986099,-1,0,1,-2,1,1,-1,-1
1615918644986099,0,-2,-2,-1,-1,-2,-2,-2
1615918645000120,-1,0,-1,-2,-1,-3,0,0
1615918645000120,0,-1,-1,0,0,-2,-1,1
1615918645002116,-2,-1,-2,1,-1,-2,1,-1
1615918645002116,-2,-2,-2,0,0,0,-1,0
1615918645023055,-2,-2,-2,-4,-3,0,0,-1
1615918645023055,-2,1,-1,0,1,0,0,1
1615918645025052,0,2,-2,0,-1,-1,0,1
1615918645025052,0,1,3,2,1,-2,-1,-1
1615918645037017,1,0,-2,-1,1,-2,-2,-2
1615918645037017,0,-2,-1,-2,-4,0,0,-1
1615918645045993,-1,-1,-1,-1,-1,0,0,0
1615918645045993,-1,-1,1,-1,-2,0,0,1
1615918645060648,-1,0,-2,-1,0,-2,-3,-1
1615918645060648,0,-1,-2,-1,-2,-2,-1,-1
1615918645062621,-1,0,0,-1,-1,2,-1,-2
1615918645062621,0,0,0,-3,-1,0,1,-1
1615918645082624,-1,-2,-1,-1,0,-1,0,-1
1615918645082624,-1,-1,-3,-2,0,-1,-2,-1
1615918645084641,-2,-1,-2,0,-1,-2,-1,-1
1615918645084641,-1,-2,-2,-2,-2,-2,-2,0
1615918645096586,2,-2,0,0,-1,0,-1,-1
1615918645096586,-2,-2,0,0,-1,0,2,-2
1615918645105561,0,-1,0,-1,0,-2,-1,-1
1615918645105561,-2,-2,-3,-4,-2,-5,-3,-3
1615918645121054,-1,-1,-1,1,0,1,-1,2
1615918645121054,0,-2,0,-1,0,-2,0,-1
1615918645122054,1,-1,-1,-1,0,0,-2,-2
1615918645122054,0,-2,0,1,-1,-1,-1,-2
1615918645142707,1,0,0,0,-2,-1,-2,0
1615918645142707,-1,-2,0,0,-1,-2,-1,-1
1615918645144690,-2,-1,-1,-2,0,-3,-1,-2
1615918645144690,-1,-2,-1,-3,-2,0,-1,1
1615918645156638,-1,-1,-3,-1,0,0,1,-2
1615918645156638,0,-1,-1,-1,-1,2,-3,0
1615918645165730,-1,-1,-1,-1,0,-1,-2,0
1615918645165730,-2,-1,-2,-1,0,0,-1,3
1615918645180740,-2,0,0,-1,0,-3,0,0
1615918645180740,-2,0,0,-1,1,-1,-1,-1
1615918645181744,-1,-1,-2,-1,-3,-4,-1,-3
1615918645181744,0,0,-3,0,-1,1,0,-1
1615918645202748,-2,-2,-1,-1,1,1,0,0
1615918645202748,0,-1,0,0,1,0,0,0
1615918645204739,-1,-2,-3,-1,0,0,-1,-1
1615918645204739,-1,-3,0,-1,-2,-2,-1,0
1615918645216724,-1,-2,-2,-1,-5,-3,-2,-1
1615918645216724,-1,0,0,0,-2,1,-1,0
1615918645233658,-1,-1,1,-2,0,0,1,1
1615918645233658,-2,0,-2,-4,-2,0,0,-1
1615918645240360,0,-1,-2,-3,-1,-1,0,0
1615918645240360,-1,-2,0,-2,-2,-2,-2,0
1615918645242382,-1,-1,-2,1,-1,-2,1,-1
1615918645242382,0,1,1,2,3,1,1,1
1615918645262704,-1,0,-1,-1,-2,-3,-1,-2
1615918645262704,-2,-2,-2,-2,-2,0,-1,-4
1615918645264705,-1,-1,0,0,0,2,0,0
1615918645264705,0,-1,-1,-2,-1,0,-1,-2
1615918645276654,-1,-2,-2,-3,0,0,0,0
1615918645276654,1,-1,-3,-1,0,0,1,1
1615918645285633,-2,-1,-2,-2,-2,-1,0,-3
1615918645285633,-1,-1,-1,0,-2,0,-2,-3
1615918645301537,-1,0,-2,0,1,1,-2,1
1615918645301537,-1,0,0,-2,0,-2,0,-1
1615918645302531,-1,-2,0,-2,-2,-1,-1,0
1615918645302531,-3,-1,-1,-3,-1,-4,-1,-1
1615918645323472,-2,0,0,-1,-2,2,0,-2
1615918645323472,-2,-1,1,-1,-1,-1,-1,-1
1615918645324470,1,-1,-1,-2,-4,-1,0,0
1615918645324470,-2,0,-3,-2,-2,-2,-1,-1
1615918645337119,-1,-2,-2,-1,-1,-2,-2,-1
1615918645337119,0,0,-2,2,-1,-2,-1,-1
1615918645346104,-1,-1,1,1,0,-1,-1,-1
1615918645346104,0,-2,0,-1,-3,1,0,0
1615918645361063,0,-2,-2,-2,-4,-5,-1,0
1615918645361063,-2,-2,-2,-2,-2,0,0,-1
1615918645362059,-3,-1,-2,1,3,0,-2,-1
1615918645362059,-1,-1,-2,-2,0,0,-1,-1
1615918645383001,-1,-1,1,0,1,1,-2,0
1615918645383001,1,-2,-2,0,-2,-2,0,0
1615918645384995,0,0,0,-2,-2,-2,-1,-2
1615918645384995,0,-1,0,0,0,-1,0,-1
1615918645405789,-2,-2,0,-1,0,0,0,0
1615918645405789,-2,-1,-2,-3,0,0,-2,-1
1615918645406786,-2,-1,-3,-2,-1,0,-2,-1
1615918645406786,-2,1,-1,-1,1,-1,0,-1
1615918645419501,-1,-2,1,-1,-3,0,-1,0
1615918645419501,-2,-2,-3,-2,-2,0,0,-1
1615918645427306,-1,0,-1,-1,-2,-2,-1,-1
1615918645427306,-1,0,-1,-1,-1,0,-2,0
1615918645442774,1,-2,-2,-1,0,-1,1,-2
1615918645442774,0,1,0,-2,0,-1,-1,0
1615918645444807,0,0,-1,1,-2,0,0,-1
1615918645444807,-2,-2,-4,0,-1,-2,0,-1
1615918645465967,-3,-1,0,1,0,-2,-1,-2
1615918645465967,-1,0,-1,0,0,1,0,0
1615918645466967,-1,0,-2,-2,-2,-2,-1,1
1615918645466967,-1,-2,2,0,-1,-2,-3,-1
1615918645479901,-1,-1,-3,0,-3,-4,-2,-2
1615918645479901,0,1,1,1,-1,0,0,0
1615918645487187,-1,-2,1,0,-2,1,0,0
1615918645487187,-1,-1,-2,-2,0,0,-1,-1
1615918645502801,-1,-1,-1,0,0,0,1,-1
1615918645502801,-2,-3,-3,-3,-2,-2,-1,0
1615918645504715,-2,-2,-1,0,0,-1,0,-2
1615918645504715,1,-1,0,-1,-3,1,-1,-1
1615918645526011,0,-2,1,-2,-3,0,-1,0
1615918645526011,-1,-2,-2,-2,-3,-1,0,-3
1615918645527677,0,-1,0,-2,2,0,1,2
1615918645527677,-3,-1,0,-2,0,-1,0,1
1615918645540372,-2,0,-2,0,0,-2,-1,-2
1615918645540372,0,-1,0,1,-2,-3,0,0
1615918645546925,-1,-2,-1,0,-2,1,-1,0
1615918645546925,-1,-1,-2,-1,-2,-2,0,-1
1615918645562907,1,0,1,1,3,4,1,0
1615918645562907,-2,-1,-2,-2,1,-2,-2,-1
1615918645564878,-1,-2,-1,0,0,-2,-2,-2
1615918645564878,0,0,-3,0,-1,-3,-1,-1
1615918645585577,0,-1,-2,-2,0,1,1,-1
1615918645585577,-2,-2,0,-2,0,1,-1,-2
1615918645586632,-1,-2,-1,0,-1,-1,-1,-1
1615918645586632,-2,1,0,0,-1,-1,-1,-2
1615918645599666,-1,-2,-1,-2,-2,-2,-1,-1
1615918645599666,0,-1,0,-1,-1,-2,-1,1
1615918645607218,-1,0,-4,-4,-4,-1,-1,0
1615918645607218,0,-2,1,0,0,-1,0,-2
1615918645622813,-2,-1,-1,0,-1,1,0,-2
1615918645622813,-1,-2,-1,1,0,-1,0,-1
1615918645625187,0,-2,0,-1,1,0,0,-1
1615918645625187,-1,-2,0,0,2,0,-1,0
1615918645645769,-1,-2,-2,-2,-4,-2,-2,-1
1615918645645769,-1,2,1,1,0,0,1,1
1615918645646766,0,0,-1,-2,-4,0,-1,0
1615918645646766,-1,-2,-1,-3,0,-1,-1,-1
1615918645659959,0,-1,-1,-1,-1,-2,1,0
1615918645659959,-1,-1,-2,-2,-3,-2,-1,-1
1615918645667193,-2,-2,0,-1,-2,-4,-1,0
1615918645667193,0,0,-2,-1,-3,-1,-2,1
1615918645683008,-2,-2,-1,0,0,-1,-2,0
1615918645683008,-1,-2,-3,-1,-1,-4,-1,-1
1615918645685001,0,0,0,-1,5,2,-2,0
1615918645685001,-1,-2,-3,-1,-1,-2,-1,0
1615918645706124,-3,1,0,-1,1,-4,-3,1
1615918645706124,0,0,0,-1,0,0,1,-1
1615918645707702,-2,-2,-1,-1,-1,-1,-1,-2
1615918645707702,-1,-1,0,1,-1,0,0,-1
1615918645720437,-1,-2,-2,-1,0,0,0,1
1615918645720437,0,-1,-1,1,-1,-1,0,-2
1615918645727238,0,0,-1,-2,-1,-3,-2,-1
1615918645727238,-1,0,-2,-1,-4,-1,-2,0
1615918645742799,0,0,-3,-1,-1,-3,-3,-3
1615918645742799,0,-4,-2,-1,-2,-1,-3,-2
1615918645744820,-1,0,-2,-1,0,0,0,-2
1615918645744820,-1,0,0,-1,-1,-2,0,0
1615918645765782,0,-1,1,0,0,-1,-1,-2
1615918645765782,-1,0,-1,-2,-2,-1,0,0
1615918645766779,-2,0,1,-2,0,-2,-1,0
1615918645766779,-1,2,0,-1,1,0,-1,-2
1615918645778805,-2,-1,-3,-3,0,-1,-2,-1
1615918645778805,-2,-2,-1,-1,-4,-3,1,-1
1615918645788682,0,-2,-2,0,-1,-2,-1,0
1615918645788682,-1,-3,-1,-1,0,0,-1,-1
1615918645801855,-1,-1,1,0,-2,-1,-1,-1
1615918645801855,-2,-2,-2,0,0,-3,-1,-1
1615918645810656,1,-2,-1,0,-1,-1,0,1
1615918645810656,-1,-2,0,0,0,-2,-2,-2
1615918645826076,1,0,1,1,-1,0,0,0
1615918645826076,-2,-2,-1,-1,3,1,0,-2
1615918645826888,-2,-1,-2,-1,-5,-1,0,1
1615918645826888,-1,0,-1,-2,-1,1,-2,0
1615918645839653,-1,-1,-2,0,-1,-2,0,0
1615918645839653,0,-1,2,1,0,-1,-2,-1
1615918645848632,0,1,2,0,0,0,0,-2
1615918645848632,-1,-2,-2,-1,-1,-3,0,-2
1615918645862623,-1,2,-2,-1,-2,0,-1,0
1615918645862623,-1,0,1,-2,-1,0,-2,0
1615918645864590,-1,-2,-2,0,-1,-1,0,0
1615918645864590,0,-2,-1,0,-2,-1,-3,0
1615918645885996,0,0,-1,-2,-1,-1,0,-2
1615918645885996,0,1,1,0,1,-1,-2,0
1615918645886753,-1,-2,-3,-1,-1,0,-1,-3
1615918645886753,0,-1,1,-2,-1,0,0,-2
1615918645899721,-2,-3,-1,-1,1,-3,-3,-1
1615918645899721,-1,-2,-2,-2,0,1,-1,1
1615918645907724,0,-2,-2,-1,-2,-1,-3,-1
1615918645907724,-2,-2,-3,-1,-3,0,-2,-1
1615918645922684,0,-2,0,-1,-1,1,-1,-2
1615918645922684,0,-1,-2,-2,-2,-2,-1,-2
1615918645924654,-2,-1,0,-1,1,-1,-2,-1
1615918645924654,1,-2,-1,-1,-1,-1,1,0
1615918645945622,-1,-2,-2,-1,-2,1,-1,0
1615918645945622,-1,0,0,-1,1,-2,-2,0
1615918645947592,-1,-1,0,0,-2,-2,1,0
1615918645947592,0,0,-4,0,-3,1,-3,0
1615918645959561,0,0,-1,1,-1,0,1,1
1615918645959561,0,-2,-2,-3,-2,-1,-1,-2
1615918645968537,0,0,0,-2,0,-1,-1,-1
1615918645968537,0,-1,0,-3,0,1,1,0
1615918645983496,0,-2,-1,-1,-2,-3,-1,-2
1615918645983496,0,-1,-1,0,-3,-1,0,0
1615918645984495,-1,0,-4,0,0,0,-2,0
1615918645984495,-1,-1,0,-1,-1,-3,0,-1
1615918646005464,-1,1,-4,-1,-1,0,0,-2
1615918646005464,-2,0,0,-2,-1,-1,0,1
1615918646007457,-1,-2,-2,-2,-2,-1,-1,-1
1615918646007457,-1,-1,-2,0,1,-1,1,0
1615918646019400,0,-1,0,0,0,-1,0,1
1615918646019400,-1,-2,-1,0,-1,-2,0,-1
1615918646028359,-1,-2,-3,0,1,1,0,-1
1615918646028359,-2,1,-2,0,-2,0,-2,-3
1615918646043321,-1,1,1,1,0,-1,0,1
1615918646043321,0,0,-3,2,-3,-2,0,-2
1615918646044318,-3,1,1,-1,-1,-3,-1,-1
1615918646044318,-1,-2,1,-1,-1,-2,-1,-1
1615918646065237,-1,-1,-1,-3,-2,-1,0,0
1615918646065237,-1,-1,0,0,1,0,-1,-1
1615918646067232,-1,-1,-3,0,0,-1,0,-1
1615918646067232,0,-1,-1,-1,1,0,-2,-1
1615918646078889,-2,0,-1,-2,-1,-2,-1,-3
1615918646078889,-2,-1,-2,1,1,1,-1,-1
1615918646087887,-1,-3,0,-2,-3,-2,-2,0
1615918646087887,-2,-1,0,1,-1,2,0,1
1615918646102849,-2,-1,-1,1,-1,-2,-2,0
1615918646102849,0,0,-1,-1,-1,1,-1,0
1615918646104820,0,0,0,0,-2,0,1,-3
1615918646104820,-1,-2,-3,-4,-3,-3,-1,-1
1615918646125963,0,-1,0,-1,-1,-1,1,-2
1615918646125963,-2,-1,-1,-2,-1,-2,-2,-1
1615918646126858,-2,-1,1,0,1,1,-2,0
1615918646126858,-1,-2,-2,-2,-1,-2,-2,-1
1615918646139724,-3,0,-1,0,-1,0,-1,-1
1615918646139724,0,-1,-1,-3,-2,-3,-2,-2
1615918646148732,1,-1,-1,-1,-1,0,-1,0
1615918646148732,1,1,-1,1,-2,0,0,0
1615918646163726,-2,-3,-2,1,-1,-1,-2,-2
1615918646163726,-1,-2,-1,-1,-2,-2,0,0
1615918646165722,-2,-1,-1,-1,-2,-1,-1,1
1615918646165722,0,-1,-2,0,-2,-2,0,-1
1615918646185490,0,0,-1,-1,0,0,0,0
1615918646185490,-1,0,-1,-1,-1,0,0,-1
1615918646187485,1,-1,-1,-3,-1,-2,-1,-2
1615918646187485,-2,0,0,0,0,0,-1,-3
1615918646208459,0,-1,0,-1,0,0,-1,-1
1615918646208459,-1,0,-1,-1,-2,0,-2,-1
1615918646210224,-2,0,-1,0,-1,-1,0,0
1615918646210224,1,-2,-1,-3,3,1,0,-1
1615918646222731,1,-1,-1,-2,-3,-2,-3,-2
1615918646222731,0,0,-1,-1,-2,-2,0,0
1615918646225136,-2,1,-2,-3,-1,-2,-1,0
1615918646225136,-2,-1,-1,0,-3,0,-2,0
1615918646245682,-2,-1,-1,-2,0,-2,0,-1
1615918646245682,0,-3,-1,1,1,0,-1,0
1615918646247677,-3,-2,-1,0,-2,-2,0,0
1615918646247677,0,-1,1,0,-1,-2,-1,-1
1615918646267624,-1,-2,-1,-2,0,0,-2,-2
1615918646267624,-2,-2,-2,-2,-2,-2,0,-1
1615918646269617,-1,-1,0,-3,0,0,-2,-1
1615918646269617,-2,0,-3,-2,-1,-2,-1,-1
1615918646282720,-1,-1,-2,1,-4,-4,-1,-1
1615918646282720,-3,-1,-1,0,-1,1,-1,-3
1615918646284740,0,-3,-1,0,-2,-1,0,0
1615918646284740,-2,-1,-2,-1,-1,-1,-1,0
1615918646305738,-1,-1,2,0,-2,0,0,-2
1615918646305738,1,-1,-2,-1,-2,-1,0,-1
1615918646307711,0,-1,0,0,-1,-1,0,-1
1615918646307711,-1,-2,-1,-2,1,-1,0,0
1615918646327590,-3,-2,-2,-2,1,-1,0,-1
1615918646327590,-1,-2,-3,-3,0,-2,-1,0
1615918646329586,-1,-2,-2,-1,-1,-2,-1,-2
1615918646329586,0,-1,-1,-2,-3,0,-1,-1
1615918646342742,-1,-1,-1,-1,-2,0,-1,0
1615918646342742,-1,0,0,-2,0,-1,-1,0
1615918646344737,0,0,1,-1,-2,-1,-2,0
1615918646344737,-2,-2,0,-1,-1,0,1,1
1615918646365612,-1,-1,-2,-1,-1,-2,-2,-1
1615918646365612,-3,-2,0,-1,-3,-4,-3,-2
1615918646367607,-1,0,-1,0,0,-2,-1,-1
1615918646367607,0,-1,0,0,0,2,1,0
1615918646388502,0,-2,-3,0,0,-1,-1,-1
1615918646388502,-2,0,-2,1,-1,-1,0,0
1615918646390675,0,-1,1,-2,1,-1,-1,-1
1615918646390675,-2,-1,-1,-2,-1,-3,-2,0
1615918646411125,-1,-1,1,-1,-2,1,0,0
1615918646411125,-1,0,0,-2,0,-1,-1,1
1615918646412156,-3,0,-3,-1,-1,-1,0,0
1615918646412156,-2,0,-1,-2,1,-1,-1,-2
1615918646433130,0,-2,-1,-2,0,-2,-1,-1
1615918646433130,0,-1,-1,0,0,1,0,-2
1615918646435125,0,0,-2,1,-1,1,0,0
1615918646435125,-1,-1,-1,-1,-3,-1,0,-1
1615918646448087,-1,0,-2,-2,-2,-1,-2,1
1615918646448087,0,0,-1,-1,-2,-2,-1,0
1615918646450082,-1,-2,-4,-2,-1,-1,0,-1
1615918646450082,0,1,-1,2,0,-1,1,-1
1615918646462048,-2,0,-1,-1,0,0,1,1
1615918646462048,-1,-1,0,0,1,1,0,0
1615918646469030,-2,-2,-2,-1,-1,-1,0,-2
1615918646469030,0,-3,0,0,0,-3,-1,-2
1615918646485985,-1,0,-2,-1,2,2,0,0
1615918646485985,-2,1,0,-1,2,-1,0,-1
1615918646486982,-1,1,-2,0,0,-2,-1,-1
1615918646486982,-2,0,-2,-2,-2,-2,-1,-1
1615918646507964,0,-3,0,-1,-3,0,0,-3
1615918646507964,-2,-2,-3,-3,-3,-1,-1,0
1615918646509967,-1,-1,-1,-2,-2,1,1,0
1615918646509967,-2,0,-2,0,-2,1,-1,-2
1615918646522124,0,-2,0,0,-1,-1,-1,-1
1615918646522124,-1,0,-3,-3,-2,-2,-1,-1
1615918646529680,0,0,-2,-2,-2,-3,-1,-2
1615918646529680,-1,-1,-2,0,-1,0,-1,-1
1615918646545741,-1,0,-1,-1,0,-1,0,-1
1615918646545741,-1,0,-4,-3,-3,-1,-1,-1
1615918646547712,-1,0,-1,0,0,1,-2,0
1615918646547712,-1,-2,-1,-1,-1,-1,-2,-1
1615918646567674,-1,-1,-1,0,0,-2,-1,0
1615918646567674,0,-2,0,-1,-1,0,-1,0
1615918646569669,-1,0,0,1,-1,-1,1,0
1615918646569669,-2,0,-3,-1,-1,-1,-2,1
1615918646582731,-1,0,0,-1,0,0,1,-1
1615918646582731,0,-3,-1,-2,2,1,-1,-2
1615918646589694,-3,0,-1,-2,-1,0,-2,0
1615918646589694,1,-2,0,-1,-1,-3,-1,-1
1615918646605226,-1,-2,-3,-1,1,2,0,0
1615918646605226,-1,-2,0,1,-2,-2,-3,-2
1615918646607223,-1,-1,-1,-1,0,-2,0,-2
1615918646607223,0,0,0,-1,-2,1,2,-2
1615918646627787,-1,0,-1,1,-3,0,-1,-2
1615918646627787,-1,-2,-1,0,0,-1,1,0
1615918646629782,-1,-2,0,0,-1,-1,0,-1
1615918646629782,-2,0,-2,-5,-3,-7,-2,-1
1615918646642833,0,0,0,-1,-2,-4,-1,-2
1615918646642833,-1,1,2,0,0,0,-2,0
1615918646648793,0,-1,-1,-2,-3,-1,-1,0
1615918646648793,-1,-2,-1,1,-1,0,0,-1
1615918646665771,0,-1,-2,-3,-2,-1,-1,-2
1615918646665771,0,0,-1,0,-1,0,-1,0
1615918646666767,0,-3,-3,-3,-2,0,0,-1
1615918646666767,-1,-2,-1,-1,0,3,2,1
1615918646687807,-1,-1,1,1,1,-5,-1,-1
1615918646687807,-3,-3,-3,0,-3,-1,-1,0
1615918646689803,-1,-2,-2,0,-2,0,-1,-2
1615918646689803,0,1,-1,-3,0,1,0,0
1615918646702765,-2,-1,-2,-2,-1,-3,-1,0
1615918646702765,-1,-2,-2,-2,-2,-1,-1,-1
1615918646708749,0,-4,-1,-1,-1,-2,-2,-2
1615918646708749,-3,0,-3,-1,0,-4,-2,0
1615918646733325,-1,0,-3,-2,-1,1,-1,1
1615918646733325,1,0,0,-1,-2,-3,0,-1
1615918646734299,-1,-3,0,-1,2,-1,0,0
1615918646734299,0,-1,-3,-3,-2,-1,-2,1
1615918646748319,-1,-2,-2,-1,0,-2,0,1
1615918646748319,0,0,-1,0,0,0,-1,-1
1615918646750314,0,-1,0,-2,-1,0,-2,-2
1615918646750314,0,-1,1,2,0,0,1,-1
1615918646762279,-1,-2,0,0,-2,-3,-2,-1
1615918646762279,2,0,-2,0,0,1,1,0
1615918646771256,1,-1,-1,-1,0,-3,-2,0
1615918646771256,-1,-1,0,-2,-1,-1,-1,-1
1615918646785789,0,-1,-2,-1,-2,-1,0,-1
1615918646785789,-2,0,-1,-4,0,-3,0,-2
1615918646786791,0,1,-1,1,1,1,0,0
1615918646786791,-1,-1,-2,0,-1,-1,-1,-3
1615918646808203,0,-2,-3,0,-1,-1,-1,-1
1615918646808203,-2,-3,-3,-3,-2,-1,-1,-2
1615918646809382,-2,1,-1,-1,-1,-3,-1,-2
1615918646809382,0,-2,-1,-1,-1,-2,-1,-2
1615918646821712,-1,-1,0,-1,-2,1,1,-1
1615918646821712,-1,-2,-1,-2,-2,-1,-1,0
1615918646830465,-1,0,-1,-2,-1,-2,-2,-1
1615918646830465,-1,-1,-1,-2,0,0,-1,0
1615918646845224,0,-2,-1,0,2,0,-1,-2
1615918646845224,0,-1,0,0,0,-1,-2,-1
1615918646847219,0,0,-1,-1,-3,0,-1,0
1615918646847219,1,-1,-1,0,-1,-1,-1,0
1615918646875795,-1,1,0,-3,-1,0,0,0
1615918646875795,-2,0,1,2,-1,1,1,0
1615918646876768,-1,-1,-3,-2,-2,-2,-2,-1
1615918646876768,1,0,0,0,-2,3,1,-2
1615918646882183,0,-1,-1,-2,0,-1,-2,-2
1615918646882183,1,-1,-1,0,-2,-3,-1,-2
1615918646891129,-1,0,-1,0,1,2,0,0
1615918646891129,-4,0,-2,-4,-4,-6,-2,-2
1615918646906087,-2,-1,-1,-1,1,-2,-1,-1
1615918646906087,-1,0,-1,-2,0,2,0,-2
1615918646907085,-2,-3,-2,1,1,0,-1,-1
1615918646907085,-2,-3,0,1,0,2,-1,-1
1615918646928519,-1,-1,-1,-2,-2,-1,0,0
1615918646928519,-1,-2,-2,-3,1,-4,-1,-1
1615918646929685,0,0,-2,0,1,-1,-1,0
1615918646929685,0,0,-2,-1,0,-2,0,-1
1615918646941312,-1,-1,-1,1,-2,0,0,0
1615918646941312,1,-1,0,1,1,1,0,-1
1615918646951261,0,-2,0,0,-1,-3,-1,-3
1615918646951261,0,0,-1,-1,-2,-2,-1,0
1615918646965727,-2,-1,-3,-2,-3,1,-1,0
1615918646965727,-1,0,0,-1,-2,0,-1,0
1615918646967720,-2,-2,-1,-2,-3,-2,0,-1
1615918646967720,-1,-2,-2,0,0,2,-2,0
1615918646987712,-1,-1,1,-1,-2,-2,0,-1
1615918646987712,-1,0,-2,-2,-2,1,-1,-1
1615918646990687,0,1,0,-1,-1,0,0,-1
1615918646990687,-1,-1,-1,-1,0,-2,-2,-2
1615918647010907,-1,-2,-2,0,1,-1,-3,-1
1615918647010907,-2,0,-1,1,0,1,-1,1
1615918647011883,-2,-1,0,-1,-1,0,0,-2
1615918647011883,1,-1,1,-3,1,-1,-1,-2
1615918647026719,0,-1,-2,-1,-2,0,0,-1
1615918647026719,-2,-2,-3,-1,0,-2,-1,-2
1615918647027723,0,-1,-2,-2,-4,-3,-1,0
1615918647027723,-1,-1,-2,1,0,0,1,-1
1615918647047716,-1,0,0,-2,-1,0,-2,-1
1615918647047716,-2,-1,1,-1,-4,-3,-1,-2
1615918647049711,-1,0,0,-3,-1,-2,0,0
1615918647049711,-2,-2,-2,-1,-1,-4,-1,-1
1615918647061713,-1,-1,-1,1,-3,-1,0,-1
1615918647061713,-1,-1,-1,-2,-1,-4,-2,-1
1615918647070673,0,1,-2,-1,-2,1,-3,0
1615918647070673,-1,-1,-1,-2,-3,1,-1,0
1615918647085680,-1,-1,-1,-1,-2,-3,0,-1
1615918647085680,0,0,-1,-2,0,-4,0,0
1615918647087607,-1,-1,0,0,0,1,-4,-2
1615918647087607,-1,-1,-2,-1,-3,-1,-2,-1
1615918647108576,-2,0,0,0,0,0,-1,-1
1615918647108576,-1,1,-1,1,0,2,0,-1
1615918647109548,0,-3,-1,-2,1,-2,-1,0
1615918647109548,0,-2,0,1,-2,-2,-2,0
1615918647121425,0,-1,0,0,0,0,0,-1
1615918647121425,-1,-1,-2,-2,-3,-1,0,0
1615918647130747,0,0,-2,0,1,1,0,0
1615918647130747,1,2,2,0,-2,0,0,0
1615918647153814,0,-1,-3,-4,-3,-3,-1,-2
1615918647153814,-1,-2,-1,-1,0,-2,-3,-1
1615918647154811,-1,-2,0,1,0,-1,1,-1
1615918647154811,-2,-3,-1,-1,-1,0,0,-1
1615918647168639,0,1,0,1,0,-2,-2,0
1615918647168639,0,-1,-4,0,-2,1,-2,-2
1615918647169602,-1,0,-2,0,-3,-2,0,-2
1615918647169602,-1,-1,-3,-3,1,-1,1,-1
1615918647181695,0,-3,0,-2,0,0,0,-1
1615918647181695,-1,-2,-1,-1,0,0,-1,-1
1615918647198646,-1,0,-2,-1,0,-1,-2,0
1615918647198646,0,0,-1,0,-2,-1,-2,-1
1615918647205626,0,-1,-1,-1,-3,0,-2,-1
1615918647205626,0,-1,1,-2,3,-2,0,-1
1615918647207622,-1,-1,0,0,1,-1,0,-1
1615918647207622,-1,-2,-2,-1,0,0,-2,-2
1615918647228695,-3,1,-1,1,-2,-1,-2,-1
1615918647228695,-2,-2,-1,-2,-2,-2,-1,-2
1615918647229694,0,0,0,-2,-3,-3,1,1
1615918647229694,-1,-1,1,0,0,0,0,-1
1615918647241422,-1,-1,-2,-1,0,-1,-1,0
1615918647241422,0,-2,-1,-2,0,0,2,-1
1615918647250399,-1,-1,-2,-1,-2,-1,-2,1
1615918647250399,0,0,0,-1,0,-1,-1,-1
1615918647265461,-2,-1,-1,-3,0,0,-1,0
1615918647265461,-2,1,-1,3,0,-2,-3,1
1615918647267430,0,1,0,-4,0,1,-1,-1
1615918647267430,0,0,-1,0,-1,-1,1,1
1615918647288602,0,1,-1,0,1,2,0,-1
1615918647288602,0,-1,0,-1,-1,0,-2,1
1615918647291003,-2,-2,-2,-3,-1,-2,-1,-1
1615918647291003,-1,0,-2,-2,1,-1,-2,-2
1615918647311129,-1,-2,-1,-1,-1,0,0,-1
1615918647311129,-1,-1,1,-3,-3,1,1,0
1615918647312129,-2,-2,-1,-1,-2,0,0,0
1615918647312129,-1,-2,-1,-1,-2,0,1,-1
1615918647326187,0,-1,-1,1,2,-1,-1,0
1615918647326187,-2,-2,1,-1,-1,-4,-3,-1
1615918647327805,-3,-1,-1,0,0,0,-2,-2
1615918647327805,-2,-1,-1,-1,0,-5,-1,0
1615918647348240,-1,1,0,-1,-1,-3,-3,1
1615918647348240,-3,-1,-1,-2,0,-2,1,-1
1615918647350211,0,-1,-1,-1,-1,0,1,-1
1615918647350211,-1,-1,-1,0,-1,0,-1,0
1615918647371154,-1,-2,-1,-1,-1,-1,-1,-1
1615918647371154,-1,0,-2,-1,-2,-1,-2,-2
1615918647372154,0,-1,0,0,-1,-1,-2,-1
1615918647372154,-2,-2,-4,-4,-4,-1,-3,-1
1615918647384716,-1,-2,-2,-1,-4,-1,-1,-1
1615918647384716,0,-2,-2,0,1,0,-1,-1
1615918647391624,-2,-2,-1,-1,1,-2,-1,-3
1615918647391624,0,2,-1,1,0,0,-1,-1
1615918647408485,-1,-1,1,-3,-1,1,0,0
1615918647408485,0,-2,-1,0,-3,1,-1,-2
1615918647409482,-1,-1,-2,-1,-1,-3,-1,-1
1615918647409482,-1,-2,-1,-1,-1,0,-2,-3
1615918647431056,-2,-1,-1,-2,-1,-2,-1,-1
1615918647431056,-1,-2,-1,0,1,-1,0,-1
1615918647432056,-2,-2,-2,-2,-3,-1,0,-1
1615918647432056,1,1,1,-1,-2,1,1,-1
1615918647445490,-2,-1,0,0,-1,-2,-2,0
1615918647445490,0,0,0,0,1,1,-1,1
1615918647451501,0,-1,-2,2,0,-1,0,0
1615918647451501,-1,-2,0,-1,0,0,-1,-1
1615918647467707,0,-1,-1,0,1,1,-1,-4
1615918647467707,-2,-1,-1,-3,-2,-4,-1,-2
1615918647469364,0,0,0,-1,-1,-1,-1,2
1615918647469364,-1,-1,-2,-2,-1,-1,-2,-1
1615918647491046,-1,-2,-1,0,-1,-3,-3,0
1615918647491046,0,-1,-1,-1,0,0,0,1
1615918647493042,-1,-1,-1,-1,-1,0,-1,0
1615918647493042,0,-2,-1,-1,-2,-3,0,-1
1615918647504636,0,0,-2,0,-1,-1,0,0
1615918647504636,-1,-1,-1,0,-2,-2,0,-1
1615918647511714,0,-3,-1,-3,-4,-2,-1,-1
1615918647511714,-2,-1,-2,-1,-3,-2,0,-2
1615918647528643,1,0,-1,1,0,1,0,-1
1615918647528643,-1,-1,-1,0,-1,1,-1,1
1615918647529705,-1,-1,-1,0,-1,-1,-2,-1
1615918647529705,0,0,0,0,0,0,0,0
1615918647550566,-1,-1,-2,-1,-1,-3,-2,-1
1615918647550566,-2,-1,-1,-3,-1,-2,-2,-3
1615918647552560,1,-2,0,-2,-4,0,-1,-1
1615918647552560,-2,-2,0,0,0,-2,-2,0
1615918647565525,-1,-3,-1,-2,-2,-3,-2,-1
1615918647565525,-1,-2,-1,0,-1,0,0,-3
1615918647571769,-1,1,-1,-1,0,-1,0,-1
1615918647571769,-1,0,-2,0,0,-1,-2,0
1615918647587675,-3,-1,-2,-2,-1,1,0,0
1615918647587675,-1,0,-1,0,-1,0,-2,-1
1615918647590669,-3,-1,0,-1,0,-2,1,-1
1615918647590669,0,-1,0,0,-2,1,0,-1
1615918647610833,1,1,-2,-2,0,-1,-1,-1
1615918647610833,0,0,-1,0,0,2,-2,0
1615918647612829,-1,0,1,-1,0,0,0,1
1615918647612829,-3,-2,-3,0,-1,-1,0,0
1615918647625501,-2,-1,1,-1,-1,-3,0,-2
1615918647625501,-1,-1,-1,-2,-3,0,-1,0
1615918647631443,-1,0,0,1,-1,-1,-2,-1
1615918647631443,-2,-2,0,-3,-1,-4,-2,-1
1615918647648426,0,-1,0,-1,-2,0,1,0
1615918647648426,-2,-2,-2,-2,-2,-2,-1,0
1615918647649424,1,0,-1,1,-2,-1,0,-2
1615918647649424,0,-2,-3,-2,-4,-2,-2,0
1615918647670475,-2,2,-1,0,1,-2,-1,-3
1615918647670475,1,-2,-2,-1,-2,-2,-1,-1
1615918647672519,-1,-3,-3,-1,0,3,-2,-2
1615918647672519,0,-1,0,-2,0,-3,0,-2
1615918647685412,-2,-2,-1,0,-2,0,1,-1
1615918647685412,-2,1,1,-3,-1,-1,0,0
1615918647691618,-1,-1,-2,-2,-2,0,-2,-2
1615918647691618,0,-2,-1,0,-1,-1,-1,0
1615918647707732,0,-2,-2,-1,0,0,-1,-1
1615918647707732,0,-2,0,-1,0,-2,0,-1
1615918647709724,-1,0,1,-3,1,-1,-1,0
1615918647709724,-2,-1,-1,-2,0,0,0,0
1615918647730709,0,-1,-1,-2,0,0,-1,0
1615918647730709,-2,0,-2,0,-1,-1,1,-1
1615918647732704,-2,-2,-1,1,1,-2,-1,1
1615918647732704,-2,-1,-2,-1,-3,-1,-2,0
1615918647744091,0,-1,-1,-1,-1,0,-1,-1
1615918647744091,0,-2,-1,0,-2,-1,-1,-1
1615918647753041,0,-1,-1,-2,-1,1,1,-1
1615918647753041,0,1,-1,0,1,-1,0,0
1615918647768209,-1,-2,-3,-2,-1,-2,-1,-1
1615918647768209,-2,-1,0,-2,0,0,-1,-2
1615918647770203,-2,0,-2,-2,-2,-1,-1,-3
1615918647770203,0,-2,0,1,-2,1,-2,-2
1615918647798308,-2,1,-1,-2,-1,0,-1,0
1615918647798308,0,-1,-2,2,-2,1,0,-1
1615918647799305,-2,-1,-2,-2,-1,-4,-1,1
1615918647799305,0,-1,-1,1,-1,0,-1,-1
1615918647804291,0,-2,0,-1,-2,-2,0,1
1615918647804291,-1,-1,-1,-1,-1,-2,-2,0
1615918647813394,-4,-3,0,0,-1,-1,1,-1
1615918647813394,0,1,0,-1,0,1,-1,0
1615918647827744,-1,0,-1,0,0,0,0,-1
1615918647827744,0,0,0,0,1,-1,-2,-1
1615918647829682,0,-1,-2,-1,-1,-2,-2,-1
1615918647829682,-2,-1,0,-1,-1,-2,0,-1
1615918647850676,-1,0,-2,-2,-1,0,-1,-1
1615918647850676,-1,-1,-2,-3,-4,-3,-2,0
1615918647852672,-1,-1,0,2,0,-2,-2,-1
1615918647852672,-1,-3,1,-2,-1,0,-1,0
1615918647864640,-2,0,-1,0,-1,-1,0,0
1615918647864640,-2,-1,-1,-2,-2,-1,1,1
1615918647873614,0,0,-1,-2,0,1,0,-1
1615918647873614,0,1,-1,-1,1,-2,2,-1
1615918647887740,0,-1,-1,0,-1,0,-1,-2
1615918647887740,-2,-3,0,-3,1,1,0,0
1615918647890732,0,-3,-2,-2,-2,-2,-1,-2
1615918647890732,0,1,-1,-3,0,1,-2,-1
1615918647911098,-1,-1,-2,1,0,-1,-2,0
1615918647911098,0,0,-1,-1,0,-2,1,-1
1615918647912104,0,-1,1,0,-1,-2,-1,-1
1615918647912104,-3,-2,-3,-1,-3,0,-2,-1
1615918647924066,0,-2,0,-1,-1,-2,-1,-2
1615918647924066,-2,-2,-3,-1,-2,-2,0,-1
1615918647933507,-1,-2,0,-2,-1,0,0,1
1615918647933507,-1,-1,-1,-1,-1,0,-1,-1
1615918647948603,-1,0,2,-2,0,-1,-1,0
1615918647948603,-2,-1,1,1,0,-1,-3,-2
1615918647949601,1,0,-2,-4,-1,-1,-1,-2
1615918647949601,-1,-2,0,0,0,-2,-1,0
1615918647971179,-1,-1,-3,-1,-1,0,-1,-2
1615918647971179,1,0,-1,1,-1,0,-1,-1
1615918647972191,0,-1,-2,-1,-1,-1,-3,1
1615918647972191,0,-2,-1,-2,1,-2,-2,0
1615918647984730,-1,0,0,0,-2,1,1,1
1615918647984730,0,0,-1,-1,-2,0,0,0
1615918647993735,-2,-1,-2,1,-1,0,-1,-1
1615918647993735,-1,-1,-2,-1,-1,-2,-2,-1
1615918648008487,-2,0,0,-1,-1,2,-1,-1
1615918648008487,-1,0,-1,-2,-1,-3,-1,-1
1615918648009484,-1,1,1,0,0,1,0,0
1615918648009484,0,-1,0,0,-3,1,2,-1
1615918648030705,-2,-2,-2,0,-2,-3,-2,-2
1615918648030705,-1,-1,-2,-1,-2,-1,2,-1
1615918648032699,-3,-3,-2,0,-1,0,-3,0
1615918648032699,-1,0,2,1,0,-2,0,-2
1615918648044221,1,0,0,-1,0,0,-2,0
1615918648044221,0,0,1,-2,-4,-2,1,-1
1615918648053197,-1,-2,-3,0,-2,-2,-1,-1
1615918648053197,-1,0,-2,1,-1,-2,-1,0
1615918648067685,-1,-2,-2,-1,-1,1,-1,0
1615918648067685,-1,-2,-1,-3,0,-3,-1,-1
1615918648076075,0,0,0,-1,-1,1,0,0
1615918648076075,-1,-1,-2,-3,2,0,-1,-2
1615918648089574,1,-1,-1,0,-3,0,-2,-1
1615918648089574,-1,0,-1,-1,-1,1,-1,-2
1615918648098551,-1,3,-2,-2,-1,1,0,0
1615918648098551,-1,-1,-1,-1,-2,-3,-2,-1
1615918648104534,1,-2,-1,-1,-2,-2,-1,-1
1615918648104534,-1,-1,0,1,0,2,-2,-3
1615918648120892,-1,0,-1,-1,-2,0,0,1
1615918648120892,-1,0,-2,-2,-4,-1,0,-1
1615918648127741,-2,-2,-2,0,2,-2,-3,-1
1615918648127741,0,-1,-2,-1,0,-1,1,0
1615918648129681,0,-3,-1,-2,2,-3,-1,-1
1615918648129681,-1,-1,0,-1,-1,0,1,-1
1615918648150677,-1,-2,-1,-1,0,-2,-1,0
1615918648150677,-3,0,-1,-2,0,-2,-3,-1
1615918648152671,-1,-1,-1,-2,-2,0,0,-1
1615918648152671,0,0,-3,-3,-1,-2,-3,0
1615918648164608,-1,-2,-1,-2,-1,-1,1,-1
1615918648164608,0,1,-1,0,-2,0,0,1
1615918648173788,-2,-1,-2,0,-1,-3,-1,-1
1615918648173788,-2,0,0,-1,-1,-1,-1,-2
1615918648188705,0,0,-1,-1,-1,-1,0,-1
1615918648188705,-2,-2,0,1,1,0,-1,0
1615918648190602,-1,-1,-1,0,0,1,-1,-1
1615918648190602,-1,-1,-3,-1,1,0,0,-2
1615918648211088,-2,0,0,-2,-2,-2,0,-1
1615918648211088,0,-1,-1,-3,-2,-4,-2,0
1615918648212093,-1,-1,0,0,0,2,0,-2
1615918648212093,0,-1,-1,0,0,0,-1,0
1615918648233060,-2,1,1,-2,-1,0,-1,-1
1615918648233060,1,-2,-2,-1,-1,-1,-1,0
1615918648235029,-2,-2,-2,-1,-2,-1,0,-2
1615918648235029,1,0,-2,0,-1,2,2,1
1615918648247729,-2,-3,-3,-3,-3,-2,-1,-2
1615918648247729,-1,0,-2,1,0,1,-2,-2
1615918648254710,0,1,-1,-2,-3,-3,-1,-1
1615918648254710,-2,-2,-1,0,0,-1,-1,-2
1615918648270670,0,0,-1,0,-1,1,-1,1
1615918648270670,-1,-2,0,-2,1,2,1,0
1615918648272663,-1,0,1,-1,-2,-1,-3,-1
1615918648272663,-3,1,-1,-3,-3,-4,-1,0
1615918648293095,-1,-2,-2,-1,-1,-1,-1,-2
1615918648293095,-1,-2,-1,-1,-1,0,-1,-2
1615918648295053,-2,-1,-1,-1,0,0,-1,-1
1615918648295053,0,-1,-1,0,-2,0,-2,0
1615918648308016,-1,1,0,1,1,0,0,0
1615918648308016,0,-1,0,1,-1,-1,2,1
1615918648314001,0,-1,-1,0,-3,-2,0,0
1615918648314001,0,-2,-1,0,1,0,1,0
1615918648330565,-1,-1,0,-1,-1,0,-1,1
1615918648330565,-3,-1,-4,-1,-1,-2,0,-2
1615918648332557,1,-1,-1,-3,-1,-1,-1,-1
1615918648332557,-1,-2,-1,-2,-3,-1,-3,-3
1615918648353524,-2,-3,-1,0,-1,0,-1,-2
1615918648353524,-2,0,0,0,-3,-5,-2,-3
1615918648355520,-2,-1,-2,-1,-1,-2,-1,-2
1615918648355520,-1,-1,1,-1,0,-2,-2,-1
1615918648375519,0,0,0,-1,0,-1,-1,0
1615918648375519,-1,0,-1,-1,-1,-1,-3,0
1615918648376971,-2,-2,-2,-4,-2,-3,0,-2
1615918648376971,-1,0,-1,0,0,0,-1,0
1615918648390744,-1,-1,0,-2,0,0,0,0
1615918648390744,-2,-1,-2,-1,-1,1,1,1
1615918648397002,0,-1,0,1,1,0,2,0
1615918648397002,-1,-1,-2,-1,-1,-2,0,-2
1615918648412727,1,0,-1,-1,0,-1,-2,-2
1615918648412727,-2,-1,-2,-1,-2,0,-2,-2
1615918648415248,-1,-2,-1,-1,-3,-1,-1,-2
1615918648415248,-2,-1,1,0,-1,-1,-1,0
1615918648428002,0,-1,0,0,-2,0,0,-2
1615918648428002,2,-2,-1,-2,0,0,-2,0
1615918648434828,-2,-1,-1,-1,-1,-1,-2,0
1615918648434828,-2,-2,-4,-2,-1,1,0,-1
1615918648450917,-1,-2,-3,-1,0,0,0,0
1615918648450917,-2,-1,0,-3,-2,-2,-2,0
1615918648451915,0,0,-1,0,0,0,-2,-1
1615918648451915,-1,-1,-2,1,-2,-4,-1,0
1615918648472813,-4,-1,-1,-2,0,-1,-2,-1
1615918648472813,-1,-2,-2,1,1,-1,1,-1
1615918648475353,-1,-1,-2,-1,0,0,0,-1
1615918648475353,-1,-2,-1,-2,-1,-2,-2,-2
1615918648488029,0,-1,-1,-2,0,-1,-3,-1
1615918648488029,-2,-2,0,-1,0,0,0,0
1615918648494665,-1,-1,-1,0,-1,-2,0,-1
1615918648494665,-2,-2,-3,-2,0,1,1,-1
1615918648511248,0,-2,0,-2,-1,-1,1,0
1615918648511248,-1,-1,-1,-2,1,1,0,0
1615918648512248,-1,-1,-1,0,-1,-1,0,-1
1615918648512248,0,1,0,-1,-1,1,-1,-1
1615918648532699,-1,-2,0,-1,0,0,-1,-2
1615918648532699,0,-1,-3,-1,-2,-3,0,-2
1615918648535252,-2,-2,-1,1,1,-1,1,0
1615918648535252,0,0,-2,-2,-3,-3,-1,0
1615918648547808,-1,0,-1,-1,-1,-2,-3,-1
1615918648547808,1,-1,-1,-2,-1,-2,-2,0
1615918648553819,0,-2,-2,-1,-1,0,-3,-1
1615918648553819,-1,0,2,2,0,2,1,-1
1615918648571017,0,0,-1,-1,-2,-2,-1,0
1615918648571017,-3,-2,0,0,0,0,-2,-1
1615918648572043,-1,-2,-1,-2,0,0,-1,0
1615918648572043,-2,-2,1,-2,-3,-1,-1,0
1615918648592933,-2,0,-1,1,-1,-1,0,-2
1615918648592933,-2,0,-1,0,-1,-2,0,0
1615918648594903,1,-1,-1,-2,-1,0,-2,-1
1615918648594903,0,0,0,0,-2,1,-2,-1
1615918648608019,-2,-1,-1,-1,-2,-1,-2,0
1615918648608019,0,0,-1,-3,-5,-2,0,-1
1615918648614694,-2,-1,0,-2,-2,0,-1,0
1615918648614694,0,0,-1,-1,-1,0,-1,-2
1615918648631201,-1,-2,-4,-1,-1,-1,0,0
1615918648631201,-1,-1,0,0,1,-1,-1,1
1615918648632201,0,0,-1,-2,-2,-1,0,0
1615918648632201,-2,-1,0,-2,-2,-2,-1,-1
1615918648652795,0,-2,-3,-1,2,0,-1,-1
1615918648652795,1,-1,-1,0,-1,0,0,-1
1615918648654790,-3,0,0,-1,0,0,0,-1
1615918648654790,-1,-1,-2,-2,0,-1,-1,-1
1615918648675593,-2,0,0,0,-3,0,1,-1
1615918648675593,0,-1,-1,-1,-2,-1,-1,-2
1615918648677589,0,0,-1,0,-2,-2,-1,1
1615918648677589,0,0,-1,0,0,-1,0,-1
1615918648690768,-1,-1,-1,-2,-1,0,0,0
1615918648690768,-2,-2,-1,-2,1,0,-1,0
1615918648692764,0,0,1,1,0,0,-1,-1
1615918648692764,-3,-2,-2,0,0,-1,-2,0
1615918648712698,0,0,-1,-2,-2,-4,-1,-1
1615918648712698,-1,0,-2,-2,-1,-2,-1,0
1615918648714696,-2,-2,0,0,-1,1,-1,0
1615918648714696,0,-2,-4,-1,1,0,-1,-1
1615918648727329,-1,0,0,1,1,-2,0,-3
1615918648727329,-1,-1,-1,-1,-1,-1,-1,-1
1615918648735310,-1,0,-2,0,-1,0,1,1
1615918648735310,0,-1,0,-2,-1,-2,-1,-3
1615918648750481,-1,-2,-1,0,-2,-1,-2,1
1615918648750481,0,-1,0,1,0,0,0,-1
1615918648752451,-1,-1,0,-1,0,-3,0,-1
1615918648752451,-2,1,0,-1,-2,0,-1,0
1615918648772794,-1,-2,-2,-3,0,-1,0,-1
1615918648772794,-1,-1,0,0,-1,-1,-1,-2
1615918648775363,1,-3,-2,0,0,-3,-2,0
1615918648775363,-1,-2,-1,-1,-1,-1,-1,-2
1615918648787778,0,-1,-2,-1,-3,-3,-2,-1
1615918648787778,1,-1,0,-1,1,0,-1,0
1615918648795555,-1,0,1,-1,-2,-1,0,-1
1615918648795555,-1,-1,-1,1,0,-1,-1,-1
1615918648818558,1,-1,-2,-2,-1,-1,0,0
1615918648818558,0,-1,0,0,0,0,-2,-2
1615918648819558,0,-1,-4,-2,-1,-1,-1,-1
1615918648819558,-2,-1,-2,2,0,-2,1,0
1615918648833274,-3,-3,0,0,-3,-1,-1,-1
1615918648833274,-1,-1,-2,-2,1,-1,-1,-2
1615918648834272,-2,-1,-1,-3,-2,-1,-2,-1
1615918648834272,-1,1,0,-2,0,0,-1,1
1615918648846546,-1,0,1,0,1,-2,-1,-1
1615918648846546,0,-2,-1,-3,-4,-2,-1,0
1615918648855521,-2,-3,0,2,-1,-1,0,-2
1615918648855521,-1,-2,-3,-4,-2,-4,0,0
1615918648871203,0,0,1,1,-2,0,0,0
1615918648871203,-2,-1,-3,-1,-1,-6,-2,0
1615918648872179,-1,1,-2,-2,0,-2,-2,-1
1615918648872179,0,0,0,0,-1,-3,0,-1
1615918648893034,0,0,-4,-2,-1,0,0,1
1615918648893034,-1,-1,-1,-3,-3,1,-1,-2
1615918648895029,-2,-2,1,0,0,1,0,-1
1615918648895029,-1,0,0,-2,-2,0,-1,-1
1615918648907006,0,-2,-2,-3,-1,-1,-1,0
1615918648907006,-1,-2,-2,-1,-1,1,-2,0
1615918648915496,-2,0,-1,0,0,0,0,-1
1615918648915496,0,0,-2,-2,-1,-3,-2,-2
1615918648931178,-1,-1,-1,0,-1,-2,0,0
1615918648931178,0,-1,0,-2,-1,-2,-2,0
1615918648932179,-1,-2,-2,0,-1,-2,-2,-2
1615918648932179,-1,-2,-2,-1,0,-1,-1,-1
1615918648953626,0,0,0,-1,-1,0,-1,-2
1615918648953626,-1,-1,1,1,0,-1,-1,-1
1615918648955596,1,0,-2,-3,-1,-1,-1,-1
1615918648955596,-1,0,1,0,-3,0,-1,-1
1615918648966594,0,-1,-1,-1,-1,0,-2,-2
1615918648966594,-1,-1,-2,-3,-1,0,0,0
1615918648975594,-1,1,1,0,1,-3,-3,-1
1615918648975594,-2,-2,-1,0,0,1,-1,-1
1615918648990442,-1,0,-2,-1,-1,-3,-3,-1
1615918648990442,-3,-1,-2,-1,-3,-2,-1,-2
1615918648993436,-1,-2,1,-3,-3,-1,0,-1
1615918648993436,0,-1,0,-1,0,0,0,-3
1615918649013348,-3,-2,0,-1,-2,-1,0,-1
1615918649013348,0,-1,-3,1,0,-3,-1,-1
1615918649014345,-1,-1,-1,0,-2,0,-2,1
1615918649014345,-1,-1,-2,-1,-2,0,-2,1
1615918649026752,-2,-1,-1,-1,0,0,0,0
1615918649026752,-1,0,-1,0,-1,-1,1,-2
1615918649035458,0,-1,-4,-2,-2,-1,0,-1
1615918649035458,0,-1,-1,-1,0,0,-1,-1
1615918649050803,-2,1,-2,-1,0,-1,-1,-2
1615918649050803,-2,0,-1,1,0,-2,0,-1
1615918649052772,0,0,-1,-1,0,-1,-1,-2
1615918649052772,0,1,0,0,-1,0,0,0
1615918649072797,1,-1,0,-3,0,0,0,0
1615918649072797,0,-2,-1,-3,-2,-5,-2,-1
1615918649074797,0,-2,-2,-1,1,0,1,0
1615918649074797,1,-1,-2,-1,-1,-2,-1,-1
1615918649087246,-1,-1,-1,0,1,1,0,0
1615918649087246,-2,-1,0,0,0,0,-1,-2
1615918649096337,-1,-3,-1,-3,-2,0,-1,-1
1615918649096337,-2,-2,-1,-1,0,0,-1,0
1615918649110823,-2,0,-1,0,-3,-1,-1,0
1615918649110823,-2,-1,1,-2,0,1,-1,-1
1615918649111822,-1,-1,-2,2,0,0,0,-1
1615918649111822,-2,0,0,-1,-4,-1,1,1
1615918649133751,0,-2,-1,1,0,-1,0,-1
1615918649133751,0,-2,-1,-2,0,-2,-2,-1
1615918649134749,-1,-1,-2,-2,0,-1,-1,-1
1615918649134749,1,-1,1,0,-2,0,1,0
1615918649155462,-1,0,0,-1,-1,-1,1,-2
1615918649155462,-1,1,-2,0,-2,2,0,0
1615918649157767,1,0,-1,-3,-2,-3,-3,-2
1615918649157767,-1,-1,-2,-3,0,-1,0,-2
1615918649171339,-1,0,0,-1,-3,-1,-2,-1
1615918649171339,1,-2,-1,-2,0,-1,-1,-1
1615918649172339,-2,-2,0,0,-2,-1,-1,0
1615918649172339,-1,-2,-1,1,1,-1,-1,-1
1615918649192776,-1,-2,-2,-1,-3,-2,-3,-3
1615918649192776,-1,-4,-1,1,0,0,0,-2
1615918649195769,-2,1,0,1,0,-1,-1,0
1615918649195769,-2,-2,-2,-3,-2,-2,-2,-2
1615918649215903,1,1,0,2,2,2,1,1
1615918649215903,-2,0,-1,-2,0,-2,-1,-1
1615918649216900,1,-2,-2,0,-2,-1,-1,-2
1615918649216900,-1,-3,-2,-1,-2,-2,0,-3
1615918649230677,0,-1,-2,-3,-2,0,0,0
1615918649230677,1,0,0,0,0,0,-1,1
1615918649232672,1,-1,-2,-3,-1,-1,-1,0
1615918649232672,0,0,-1,0,1,1,0,0
1615918649253552,-1,-2,0,0,-1,0,-1,-2
1615918649253552,0,-2,-1,-1,-1,-2,-2,1
1615918649254551,-3,-3,0,0,0,0,1,0
1615918649254551,-1,-1,0,0,1,0,-3,0
1615918649276179,1,-2,-2,-3,2,-4,-2,-2
1615918649276179,-1,-1,-2,-1,-3,0,-3,-2
1615918649277178,1,0,-1,-2,0,-1,0,-1
1615918649277178,-1,-2,-1,1,-2,-1,-1,-2
1615918649290616,-3,-2,-1,-1,-3,-2,0,-4
1615918649290616,-1,-1,-3,-3,-2,-3,-1,0
1615918649296603,0,-1,-1,-2,-1,0,-1,-1
1615918649296603,-3,0,1,1,0,-1,-1,-1
1615918649312701,0,-1,-1,-2,0,1,-1,1
1615918649312701,-2,-1,-1,-3,-1,-2,0,-1
1615918649314685,-2,0,-1,0,-1,0,-2,0
1615918649314685,-1,-1,0,-2,-2,-1,-1,-2
1615918649335702,-2,-1,1,0,-1,1,-1,-1
1615918649335702,-1,-2,-2,1,-3,-2,1,2
1615918649337698,-1,-1,-1,-1,-1,0,0,-1
1615918649337698,-1,-2,-1,-1,-2,-2,-2,-1
1615918649349674,-1,-1,0,0,1,-1,0,-1
1615918649349674,0,1,0,0,-1,-1,-1,-1
1615918649357331,-1,-2,0,-1,-1,-3,-2,-1
1615918649357331,-1,0,0,-3,0,-2,0,-1
1615918649373462,-2,-2,-2,-2,-2,-3,-3,-1
1615918649373462,-2,0,2,0,3,2,-1,-1
1615918649374459,-2,-3,-2,-1,-2,-1,-1,-2
1615918649374459,-1,-1,0,-2,-5,-2,-2,-1
1615918649395723,0,1,0,-3,-1,-2,-2,0
1615918649395723,-2,-2,-1,-1,0,-2,0,-2
1615918649398716,-1,-1,0,0,1,1,0,0
1615918649398716,0,-1,0,-1,2,1,1,0
1615918649418659,-3,-1,0,-1,-3,-2,1,-2
1615918649418659,0,-2,-1,0,-2,-2,-1,0
1615918649419657,-1,0,0,-2,-1,-1,-4,0
1615918649419657,-1,-1,-3,0,-1,-1,-1,-2
1615918649433620,0,-1,-1,-2,-1,0,-1,0
1615918649433620,0,0,-2,-1,-1,-3,-2,-3
1615918649434617,0,-3,-4,-4,-3,-4,-2,-1
1615918649434617,-1,-3,-3,-1,0,0,-1,0
1615918649454709,-2,-1,-1,0,0,1,-2,0
1615918649454709,-1,0,-1,0,0,3,-1,-1
1615918649463683,-1,1,2,-1,0,1,1,0
1615918649463683,0,-1,-2,0,-1,-3,-3,-2
1615918649469667,-1,-3,1,-2,-1,-3,-1,0
1615918649469667,-1,-3,-2,-3,-3,0,0,-2
1615918649476648,-1,-1,-1,-1,-2,0,-1,0
1615918649476648,1,-1,-1,-3,-1,-1,-3,0
1615918649493602,-1,0,-1,-1,-2,1,0,-1
1615918649493602,-1,0,0,2,0,-1,-1,-1
1615918649494599,0,-1,-2,-1,0,-2,0,-1
1615918649494599,-1,1,-1,0,-1,-1,0,-3
1615918649515596,-2,-1,-2,0,1,-1,-1,0
1615918649515596,-1,-3,-2,-2,-1,-2,-1,-2
1615918649517591,-1,-1,-2,1,-1,0,1,-2
1615918649517591,-1,0,-2,-1,-2,-1,-1,1
1615918649529775,1,-1,-1,-1,-1,-1,0,-2
1615918649529775,1,0,1,-1,1,2,-1,0
1615918649537417,-1,-1,-2,0,-3,-2,-1,0
1615918649537417,-2,-1,-1,-3,1,-1,0,0
1615918649553483,0,-2,0,-1,0,0,-1,-2
1615918649553483,-2,-2,-1,-2,-1,-1,-2,-2
1615918649554398,-1,-2,0,1,-2,0,-1,-2
1615918649554398,-1,-1,-2,-1,-4,-4,-2,-2
1615918649576238,0,-2,-3,-1,0,1,-1,1
1615918649576238,0,0,-1,-1,2,0,0,0
1615918649577821,-2,0,-1,0,1,0,-2,-1
1615918649577821,-2,-1,-1,-1,0,0,-1,-2
1615918649589849,-1,-1,0,-2,0,-2,0,0
1615918649589849,0,0,-1,-2,-3,-3,-1,-1
1615918649598759,-1,-1,-1,-1,-1,-2,1,0
1615918649598759,1,0,0,0,1,1,0,1
1615918649612696,-1,-1,-2,-1,-2,-4,-1,-1
1615918649612696,-2,-2,1,-2,-1,0,-1,0
1615918649614694,-1,0,0,-3,-3,-1,-1,-2
1615918649614694,-1,-1,-2,-1,0,1,0,-2
1615918649636280,0,-1,-1,-1,1,3,1,0
1615918649636280,-2,0,0,0,-1,-3,0,-1
1615918649636934,-1,-1,0,1,1,-1,0,-1
1615918649636934,0,-2,1,0,-3,-1,-2,-2
1615918649648929,-2,-1,-2,1,-1,1,-1,-1
1615918649648929,-1,0,0,-2,0,-1,-1,1
1615918649658142,-1,-2,-2,1,-1,-2,-1,0
1615918649658142,-1,-1,2,1,2,1,0,0
1615918649673729,0,0,-1,-2,-2,-1,-2,0
1615918649673729,0,0,-2,-1,-3,-1,-1,-1
1615918649674727,-1,-1,-2,-1,-1,-1,-2,-2
1615918649674727,-1,-1,-3,-1,-2,-1,-1,0
1615918649695758,-2,-2,-2,0,-1,-2,-1,-2
1615918649695758,-3,-1,-2,-1,1,-1,-1,-1
1615918649698723,0,0,-2,-2,-1,-2,-1,-1
1615918649698723,-2,1,-1,1,0,-1,0,-3
1615918649709721,-2,-2,-2,-4,-3,-6,-2,-1
1615918649709721,1,-1,-1,-2,-2,0,0,-1
1615918649718688,-2,-3,-2,-2,-2,-2,-2,-1
1615918649718688,-2,-3,-2,-2,-1,0,0,0
1615918649732742,-2,0,0,0,-3,-3,0,-2
1615918649732742,-2,-1,-1,2,-2,0,-1,-1
1615918649740584,1,0,1,-1,-1,-1,-1,0
1615918649740584,-2,-2,-3,-1,-1,-3,-1,-1
1615918649754647,1,0,0,0,1,2,-2,1
1615918649754647,0,-1,0,-1,0,0,1,0
1615918649763600,1,0,-1,-1,0,0,1,-1
1615918649763600,1,-2,-1,-1,-3,-1,0,0
1615918649769890,-1,-2,0,0,-2,0,0,0
1615918649769890,-1,0,-2,0,0,-1,-3,-1
1615918649778678,-1,-1,-2,0,1,0,1,-1
1615918649778678,-1,-1,-2,-3,-3,-3,-1,-3
1615918649792370,-2,0,-1,-1,-2,2,1,-2
1615918649792370,-1,-2,-1,-1,0,0,-1,0
1615918649801335,0,-1,-2,0,0,1,-1,0
1615918649801335,-1,-1,-1,0,-1,1,-2,2
1615918649815863,0,-2,0,-1,1,-2,-2,0
1615918649815863,-3,0,1,-1,-1,0,0,-2
1615918649817759,-3,-1,-1,-1,-3,-2,-1,0
1615918649817759,-2,-1,-1,0,-2,-3,-1,-1
1615918649829017,0,-3,-2,1,0,1,-2,0
1615918649829017,1,-2,-2,-1,-1,-3,-2,-1
1615918649838680,-1,-1,-2,-3,-4,-2,0,0
1615918649838680,0,-1,0,-2,0,-1,-2,-1
1615918649853753,-1,1,0,0,0,-1,0,0
1615918649853753,-1,-1,-3,-1,-2,-3,-3,-1
1615918649854640,0,1,2,0,-1,0,0,-2
1615918649854640,-1,-2,-2,-2,0,-1,-3,-2
1615918649875786,-1,-1,-2,-1,0,-2,1,-2
1615918649875786,-1,-2,-3,0,0,-2,-3,-2
1615918649877762,0,0,-1,-1,1,3,-1,1
1615918649877762,-3,-1,-1,-2,-2,-3,-1,-1
1615918649889792,-2,-1,0,0,0,-1,0,0
1615918649889792,-2,-1,0,-2,-1,-1,-1,1
1615918649898774,0,-3,-2,0,-1,-3,-2,-1
1615918649898774,0,-1,0,1,0,-1,-2,-1
1615918649912758,-1,1,-1,-3,-1,-1,-1,0
1615918649912758,0,-1,-1,-1,2,1,1,-1
1615918649914730,-2,0,-1,-1,-1,-1,-1,-1
1615918649914730,0,0,-2,-1,-1,0,-1,-1
1615918649936211,1,-2,-1,0,-2,-3,-1,1
1615918649936211,0,-1,1,0,-1,0,1,-2
1615918649937216,-2,-1,-3,-1,-1,-1,-2,-1
1615918649937216,0,0,0,0,-2,0,-1,-1
1615918649949183,-2,-2,-3,-1,1,0,-2,-1
1615918649949183,-1,-1,-1,-1,-2,-4,0,0
1615918649958158,0,-1,0,1,-1,0,-1,-1
1615918649958158,-1,1,1,0,0,0,1,-1
1615918649973141,0,0,-1,-3,-2,-1,-1,-1
1615918649973141,-1,-2,-2,0,0,0,-2,0
1615918649975382,-2,-2,-3,-1,-1,-2,-2,-2
1615918649975382,0,-1,-2,0,-1,0,-2,0
1615918649995803,-1,0,-1,-1,0,-1,0,-2
1615918649995803,0,0,0,1,-1,-1,-1,-1
1615918649997798,1,-3,0,-1,0,-1,-1,-1
1615918649997798,0,-2,-1,-2,-2,0,-1,0
1615918650009934,-1,-1,-1,1,-1,-1,-2,-2
1615918650009934,-2,-2,-1,-1,1,-2,-1,-2
1615918650018939,-2,0,-1,0,-3,-1,0,-2
1615918650018939,0,-2,-2,-2,-3,-4,-1,-2
1615918650041313,0,1,1,0,-2,-3,-3,-1
1615918650041313,-2,0,-1,-2,-3,1,-1,1
1615918650042338,0,-1,-1,0,-1,-1,-2,-1
1615918650042338,-1,0,-1,0,0,1,2,-1
1615918650055277,-1,-1,-2,-2,-3,0,-1,-2
1615918650055277,1,-1,-1,0,-1,-3,-1,1
1615918650063462,-1,-1,-1,-1,0,-1,-2,1
1615918650063462,-1,-2,0,0,1,1,-1,1
1615918650069915,-1,-1,0,-4,0,-1,-2,1
1615918650069915,1,-1,-3,-3,-3,-1,-1,-1
1615918650078680,-1,1,-1,0,0,-1,0,-1
1615918650078680,0,0,-2,-1,-1,-1,-1,0
1615918650100800,1,1,-1,-2,0,-2,0,0
1615918650100800,-2,-1,-2,-1,-1,-2,0,-2
1615918650102797,0,-2,-1,-1,0,0,-1,-1
1615918650102797,-1,-3,1,-1,-2,-2,0,-2
1615918650115985,-1,-1,-3,-1,-1,-3,-1,-1
1615918650115985,0,-1,2,1,-1,-2,0,-1
1615918650116983,-2,-2,-2,-1,-2,0,-2,-1
1615918650116983,-2,-1,-1,0,-1,0,0,-1
