timestamp,emg1,emg2,emg3,emg4,emg5,emg6,emg7,emg8
1615918636373958,-1,-1,0,-1,-2,-1,0,-2
1615918636373958,-1,1,-1,1,-1,4,2,-1
1615918636374955,-2,0,-1,0,0,3,-1,0
1615918636374955,1,-2,1,-3,-5,-4,-3,1
1615918636398184,0,-2,1,0,-2,1,1,-2
1615918636398184,1,0,0,1,-1,0,-2,0
1615918636398682,0,-2,-2,1,1,1,0,-1
1615918636398682,-3,-1,-2,1,1,0,-1,-1
1615918636420284,0,0,-1,0,0,-2,-1,-1
1615918636420284,-1,-3,0,-3,-1,-2,-1,-1
1615918636421350,-3,0,-2,-1,-1,-1,-1,-3
1615918636421350,-1,-1,-1,1,1,-1,-2,-1
1615918636442737,0,0,-1,1,0,-2,-1,0
1615918636442737,-1,1,-2,0,-2,-2,1,-1
1615918636443771,0,-1,0,-2,-4,-7,-3,-1
1615918636443771,0,-1,-1,-2,-4,0,0,-1
1615918636457694,-1,1,1,0,2,4,1,-2
1615918636457694,0,0,-1,2,-1,-4,-1,0
1615918636458691,-1,0,1,0,1,0,0,0
1615918636458691,-1,0,0,0,-2,0,0,-1
1615918636480631,0,-1,-2,-2,0,-2,-1,-1
1615918636480631,-2,-1,-2,-1,-2,-2,-1,-2
1615918636480631,0,-3,0,-2,-1,0,0,0
1615918636480631,0,-1,-2,2,-1,-2,-1,1
1615918636493745,1,-1,-1,0,1,-1,-1,-1
1615918636493745,-2,-1,-1,0,-2,1,-2,-1
1615918636501727,-2,-1,-2,-1,-2,-1,0,2
1615918636501727,-2,-2,-2,-1,1,-3,0,-2
1615918636517737,-2,-3,-2,-3,-4,-4,-3,-4
1615918636517737,0,-1,-1,-2,-1,-1,0,0
1615918636518733,-1,0,0,2,0,-1,0,-3
1615918636518733,-2,0,-2,-3,-3,-5,-1,-1
1615918636540731,-1,-2,-1,-2,1,0,0,1
1615918636540731,0,-3,-4,-2,0,-1,-2,-2
1615918636540731,-1,0,-1,-3,-2,1,0,0
1615918636540731,0,-1,-1,-1,0,5,1,-1
1615918636553682,0,-1,-1,-2,-1,-4,0,-1
1615918636553682,-2,-2,1,1,-1,-1,0,0
1615918636561693,-2,-1,0,-1,1,-1,0,0
1615918636561693,-3,-2,0,0,-1,-2,1,-1
1615918636577617,-1,0,-1,0,-1,1,-1,0
1615918636577617,-1,-2,-3,-1,-1,1,-1,-2
1615918636578614,-1,-1,-3,-1,-1,-3,-1,-1
1615918636578614,1,-1,-1,0,3,7,1,-1
1615918636599744,-1,0,0,1,2,-4,-1,-1
1615918636599744,-1,0,-1,-2,0,-2,-1,-1
1615918636600740,0,-4,-1,1,-2,2,0,-1
1615918636600740,-1,0,-2,0,2,0,-1,-1
1615918636613881,-2,-3,-1,1,0,1,0,1
1615918636613881,0,-1,-1,-2,-1,1,0,-1
1615918636622253,-1,-2,0,-2,0,-3,-1,-3
1615918636622253,-1,-2,-1,0,-1,-2,-2,-1
1615918636638039,-2,0,0,1,-3,0,-3,-2
1615918636638039,-1,0,2,0,0,1,1,1
1615918636638039,-2,0,-1,-1,-2,-3,-3,-2
1615918636638039,-2,-1,0,-3,-2,-1,-2,-2
1615918636660004,-1,0,-1,-3,-1,-2,0,-1
1615918636660004,-3,0,0,1,-1,0,-1,-2
1615918636660975,0,-1,-2,-1,1,1,-3,0
1615918636660975,-1,0,1,-1,-3,-4,-1,-1
1615918636674020,-2,1,-3,-2,-2,-9,-4,-2
1615918636674020,0,-1,-4,-1,-3,-4,-1,-1
1615918636681990,0,-1,-2,-3,-2,0,1,0
1615918636681990,-2,-1,-1,0,1,1,1,2
1615918636697031,0,-1,1,-2,-2,0,1,0
1615918636697031,-1,-1,-1,0,0,-3,-2,-2
1615918636698004,0,0,-1,0,-1,-4,-2,-1
1615918636698004,0,-1,-2,-2,2,-1,0,0
1615918636719969,1,1,0,-1,-2,-1,-1,-1
1615918636719969,-2,-1,1,-1,-3,-2,-2,-2
1615918636720942,1,-2,-1,1,0,1,-1,-1
1615918636720942,0,-2,-1,-1,-3,-1,-2,-1
1615918636733983,-2,-3,-4,-2,0,1,0,-1
1615918636733983,1,1,-2,-2,-2,0,-2,0
1615918636742018,1,0,0,1,-1,-1,-1,-1
1615918636742018,-1,0,-1,-2,-3,-1,-1,0
1615918636757018,1,-1,-2,0,1,6,0,0
1615918636757018,0,-4,-1,-3,1,-1,-1,-1
1615918636757984,0,1,0,-1,-4,0,1,-1
1615918636757984,-1,0,-1,-1,0,-3,-2,-3
1615918636779953,-2,-2,-1,1,-1,2,1,0
1615918636779953,-2,-1,-2,-1,-1,0,0,0
1615918636780940,-1,-1,-4,-2,-2,-3,-1,-1
1615918636780940,-2,-1,-1,0,0,0,0,-3
1615918636802673,-1,-2,0,-2,-1,-1,0,0
1615918636802673,-1,0,0,0,-2,0,-1,0
1615918636803670,-2,-3,-1,-1,0,-4,-2,0
1615918636803670,0,-2,-2,-1,1,0,0,0
1615918636816689,-1,0,-1,-2,-1,-3,-1,-2
1615918636816689,-1,1,3,1,-1,1,0,2
1615918636817687,-1,-1,0,0,-2,1,-1,-1
1615918636817687,1,-1,0,-1,-2,-3,-1,-2
1615918636840732,0,-1,-2,-3,-2,-1,0,-1
1615918636840732,-1,-2,-2,-2,-1,-2,1,0
1615918636840732,0,-1,0,-1,0,1,0,-1
1615918636840732,-1,-1,0,-2,-2,-1,-3,0
1615918636862725,0,-2,-2,0,0,1,1,-1
1615918636862725,-1,-1,-2,-2,-1,-3,-2,-1
1615918636863624,-2,2,-2,-1,0,-1,0,-1
1615918636863624,1,-2,-1,-1,-2,-1,0,-1
1615918636877523,0,-1,1,-2,-1,-1,-1,0
1615918636877523,-1,-2,-2,-2,1,-3,-3,-2
1615918636877523,-2,-1,0,-2,-1,0,0,0
1615918636877523,-1,-1,0,2,0,2,1,0
1615918636901177,-1,-1,-1,0,-1,-3,-2,-1
1615918636901177,1,0,0,0,1,0,-1,-1
1615918636902151,-1,-1,0,-1,-2,0,-1,0
1615918636902151,-2,0,-1,0,2,-1,0,-1
1615918636922566,-2,-1,-2,-1,-1,-1,-1,-1
1615918636922566,0,-1,-2,-2,-3,-4,-2,-1
1615918636923563,-1,-1,0,-2,-1,1,0,-1
1615918636923563,-2,-1,-4,-3,0,-1,-2,-1
1615918636936603,-1,-2,0,-2,-2,0,-2,0
1615918636936603,-1,-1,0,-2,1,2,2,0
1615918636937602,-3,-3,0,0,0,-4,-3,-3
1615918636937602,0,0,0,1,-2,1,-1,-1
1615918636960784,-1,-1,-1,-1,-1,-2,-1,-1
1615918636960784,-1,0,-3,-2,1,0,-1,0
1615918636960784,1,-1,-2,-1,-1,-1,-1,0
1615918636960784,-2,0,-1,-1,-1,0,-1,0
1615918636983034,-2,-1,-1,1,1,0,-1,-2
1615918636983034,-1,0,-1,1,-2,-1,0,-1
1615918636983034,0,-1,-1,-1,0,-2,0,-1
1615918636983034,-1,-4,-1,0,-1,-3,-1,-2
1615918636997476,1,1,-1,-1,-3,0,-1,0
1615918636997476,-2,-1,-1,0,-1,0,-3,-1
1615918636997476,0,-2,-2,-1,-1,1,0,0
1615918636997476,-1,0,0,-3,-1,-4,-1,-2
1615918637020747,-2,0,-1,0,-1,-1,0,0
1615918637020747,1,-1,1,-1,-1,-1,-1,-2
1615918637021746,-2,-1,-2,-1,-1,-1,-1,-2
1615918637021746,-1,0,1,-1,-1,-2,-1,-1
1615918637042695,-2,-1,-1,-1,-2,0,-2,-1
1615918637042695,-1,-2,-1,-1,-1,-2,-1,-1
1615918637043694,1,0,0,-2,-1,-3,-1,0
1615918637043694,-1,0,-2,-2,-4,-2,3,1
1615918637057587,0,-2,-1,3,0,-1,-3,-1
1615918637057587,-2,0,1,0,-3,0,0,-1
1615918637057587,-2,-2,-2,-3,-2,-1,-3,0
1615918637057587,-1,0,-2,1,1,2,-2,0
1615918637080745,0,-1,-2,-2,-4,-3,0,-1
1615918637080745,0,-1,1,1,-3,-2,1,-1
1615918637080840,-1,-1,1,-3,-3,0,-1,-2
1615918637080840,-1,-3,0,-2,0,-2,-2,0
1615918637110712,-2,-2,-1,-3,2,-2,0,0
1615918637110712,-1,-1,-3,-1,-1,1,-1,-1
1615918637110712,-1,-1,0,2,-1,-1,-1,0
1615918637110712,-2,-1,-2,-2,-1,-1,-2,-1
1615918637116698,0,2,1,0,2,0,-1,-1
1615918637116698,0,-1,-2,-1,-2,-2,0,1
1615918637117695,-2,-2,-1,-1,1,0,1,-1
1615918637117695,-1,-1,-1,-1,-2,2,0,0
1615918637140727,-1,-2,-2,-1,-1,-4,-3,-2
1615918637140727,-2,-3,-2,0,-1,-4,-3,-2
1615918637140960,0,-1,-1,0,-1,-1,-1,-1
1615918637140960,-1,-1,-1,1,0,-2,-1,0
1615918637162487,-1,-1,-1,-1,1,2,0,-4
1615918637162487,-3,-2,-1,-2,0,1,-1,-2
1615918637163386,-1,0,0,-2,-3,-2,-2,-1
1615918637163386,-1,-1,-2,-2,0,-3,-1,-4
1615918637177414,0,-1,1,2,1,2,0,0
1615918637177414,-2,-2,-2,-2,0,1,1,-2
1615918637177414,0,0,0,0,1,0,0,1
1615918637177414,-1,-2,-2,-1,-1,0,-2,-2
1615918637200151,0,-2,0,-3,-1,-2,-1,-2
1615918637200151,0,-1,0,-2,-2,-6,-2,-1
1615918637201150,0,0,-2,1,0,1,0,0
1615918637201150,1,0,-1,1,0,-1,0,-1
1615918637222808,-1,-1,-1,-3,-2,1,2,-1
1615918637222808,-1,1,0,-2,-1,-2,0,1
1615918637224938,-1,-2,-1,-2,-2,-5,-1,-2
1615918637224938,1,1,0,-1,0,-2,-1,-1
1615918637237265,-1,-1,-1,-2,-1,-3,-1,1
1615918637237265,-1,-1,-1,1,1,0,-2,-2
1615918637238290,-2,-1,0,-1,-1,-2,-1,-1
1615918637238290,-2,-2,-2,-2,-2,1,-2,0
1615918637260762,0,-1,1,-1,-3,-5,-2,1
1615918637260762,0,0,0,0,-2,1,0,-1
1615918637260762,0,-2,-1,-1,-1,1,-1,0
1615918637260762,-1,-1,0,-2,-2,-4,-1,-1
1615918637282755,-1,1,-2,-1,0,-2,-2,-1
1615918637282755,-1,-1,-2,-1,0,1,0,0
1615918637283752,0,-1,-1,1,2,6,0,1
1615918637283752,-1,0,0,-3,0,-4,-1,-1
1615918637297603,-1,-1,-1,-2,-2,-2,-2,-1
1615918637297603,1,-3,-1,1,0,1,-1,0
1615918637297603,-1,-1,-3,2,-1,-1,0,-2
1615918637297603,-1,-2,-1,2,0,0,0,-2
1615918637319783,-1,0,-1,0,-2,0,-2,-3
1615918637319783,-2,0,-2,-2,-1,1,-1,-1
1615918637320780,-2,-2,-1,-2,-2,-2,0,-1
1615918637320780,0,-1,2,-1,-2,-3,0,-1
1615918637343245,-1,-1,-1,1,0,1,0,0
1615918637343245,-1,-1,-2,-1,0,-1,0,-2
1615918637343245,-1,1,0,-2,0,0,-3,0
1615918637343245,-3,-1,-1,0,-1,-1,-1,-1
1615918637357561,-2,-2,-3,-1,-3,2,-1,-1
1615918637357561,-1,1,-2,1,-1,-1,0,-3
1615918637357561,1,-2,0,-2,-3,-2,-1,-1
1615918637357561,0,-2,-1,0,-1,0,0,0
1615918637380501,-2,-4,1,-1,-2,-1,1,-1
1615918637380501,-2,0,-3,0,-1,-2,-1,1
1615918637381498,1,0,-1,-1,-1,-2,-1,0
1615918637381498,-1,-1,-1,-3,-1,-3,-1,-1
1615918637402469,-2,-1,-2,0,0,0,1,-1
1615918637402469,0,0,0,-2,0,-1,-1,0
1615918637417402,-2,-2,0,0,0,-2,0,0
1615918637417402,-2,-3,-1,-1,-1,3,0,-1
1615918637419398,-1,1,0,-3,0,-3,-2,-1
1615918637419398,0,-1,0,-2,-1,-4,0,0
1615918637424384,-2,0,-2,0,-2,-2,-1,-2
1615918637424384,-2,-1,-1,0,-2,0,-2,-1
1615918637440341,0,-1,-1,-1,-5,-4,-3,-1
1615918637440341,-1,0,-2,-2,0,2,-2,0
1615918637441339,-2,-1,-2,-2,-1,-2,-2,-2
1615918637441339,-1,-1,-1,2,-1,-2,-1,0
1615918637462307,-1,-1,-1,-1,2,0,-2,1
1615918637462307,0,-2,-1,0,-2,-2,1,-1
1615918637463281,1,-1,-3,-2,-1,-1,-1,-1
1615918637463281,-1,-1,-2,-1,-2,1,0,0
1615918637476245,0,-2,0,-1,0,0,0,-2
1615918637476245,1,1,1,0,0,1,0,0
1615918637484224,-2,-1,-2,-3,2,2,-1,-1
1615918637484224,0,1,-2,-3,0,-1,0,-1
1615918637500258,-1,-2,-3,-1,-1,-2,-1,-2
1615918637500258,-4,-1,-1,-2,0,0,-1,0
1615918637501255,0,0,1,0,-3,2,1,-1
1615918637501255,0,1,-2,-1,-1,-4,-3,0
1615918637523219,0,1,-3,-1,-1,2,-1,0
1615918637523219,-1,-2,-1,0,-1,1,0,-1
1615918637523219,-1,-1,0,0,-1,-1,1,-1
1615918637523219,-1,-1,0,0,-2,-1,-2,1
1615918637536186,-1,-1,-2,-1,0,-2,0,0
1615918637536186,-3,-1,1,0,0,-4,-1,-2
1615918637544359,-2,-2,-2,-1,-2,0,-1,1
1615918637544359,1,-1,-1,-1,2,3,1,-1
1615918637560344,-1,-1,0,1,1,2,-1,-1
1615918637560344,0,-1,0,-2,1,-1,-1,-1
1615918637561341,-1,-2,-2,-2,-1,-1,-2,-2
1615918637561341,-2,-2,0,-1,0,0,-2,-1
1615918637583255,-2,-1,-2,-1,-1,0,0,0
1615918637583255,-1,-1,0,-1,-3,-3,-2,0
1615918637583255,0,-1,0,-1,-1,-1,-2,0
1615918637583255,1,-2,-1,-1,1,-1,0,-1
1615918637597218,-1,-1,0,-1,0,-1,0,-2
1615918637597218,0,-2,-2,-1,0,2,0,0
1615918637605196,-2,0,0,-2,-1,-7,-2,-2
1615918637605196,-2,0,-1,-1,-2,0,0,-1
1615918637620180,0,-1,0,1,-1,0,1,-1
1615918637620180,-1,-1,-1,0,0,2,0,0
1615918637621510,0,0,-1,0,0,-3,-1,-1
1615918637621510,0,0,-1,0,-2,-1,0,-1
1615918637642683,-2,-2,-2,-1,-2,-2,-2,-1
1615918637642683,0,-2,-1,-2,-1,1,0,-1
1615918637643654,-1,-1,-1,0,-2,1,-1,0
1615918637643654,-2,1,0,-1,-1,-1,-1,-1
1615918637656644,-1,0,-2,-2,0,-1,-2,-1
1615918637656644,-1,0,0,2,-1,-4,-1,-2
1615918637665596,-1,0,0,0,-2,1,-1,0
1615918637665596,-2,-1,-1,-2,-3,-4,-1,-1
1615918637679954,-2,-2,-1,-2,0,-2,-1,-3
1615918637679954,0,-2,-2,-3,-2,-1,-2,-1
1615918637686817,0,-1,-2,-1,-1,0,-2,-1
1615918637686817,0,-2,-1,-1,0,-2,-2,-1
1615918637702779,0,0,3,-1,0,0,-2,0
1615918637702779,-1,0,-1,-1,-1,-4,-2,0
1615918637704774,0,-2,-2,-1,-2,0,-1,-1
1615918637704774,-1,-1,-1,0,-1,0,-1,-1
1615918637716680,2,1,1,1,-4,-5,-1,0
1615918637716680,-2,-1,-2,-2,0,-1,-4,-3
1615918637725845,0,-2,0,0,0,0,0,-1
1615918637725845,-2,-1,0,-1,-3,-3,-2,1
1615918637739143,-1,0,0,0,-2,-3,1,-1
1615918637739143,-2,-2,-1,0,-2,1,0,0
1615918637748205,-1,-3,-2,-2,0,-3,-1,-2
1615918637748205,0,0,-1,-1,0,-2,-1,-1
1615918637762718,-1,-1,1,0,-1,1,0,-1
1615918637762718,0,0,0,-1,-2,-2,-1,0
1615918637764697,-1,-1,-1,-1,1,0,0,-1
1615918637764697,-1,0,-2,0,0,0,-2,0
1615918637785779,-2,-1,-2,-3,-3,-1,-2,-2
1615918637785779,0,-1,0,-2,-3,-1,-3,1
1615918637786756,0,-1,0,0,-2,0,-2,1
1615918637786756,-1,-1,0,-2,-1,1,1,-2
1615918637807722,-1,-1,-1,-3,1,-5,-2,0
1615918637807722,0,0,-2,0,0,1,0,-3
1615918637809693,-1,1,-2,0,3,-4,-2,-1
1615918637809693,-1,-2,-2,0,-1,1,-2,0
1615918637830749,-2,-2,-1,-1,-1,3,1,-2
1615918637830749,1,1,-1,-1,-1,-1,0,-1
1615918637832751,0,1,2,-2,-4,-2,-1,0
1615918637832751,0,1,0,-1,0,-1,-3,-1
1615918637852728,-1,-3,-1,1,-1,-1,-1,1
1615918637852728,0,-2,-2,1,0,2,0,0
1615918637854722,-2,-2,-2,-3,-4,0,0,0
1615918637854722,0,-1,0,0,-1,-1,0,-1
1615918637858799,-1,-1,0,-2,0,-1,1,-1
1615918637858799,0,1,0,-1,0,0,0,-1
1615918637867780,-1,0,-2,-2,-1,-1,0,-1
1615918637867780,-1,-1,1,-2,-3,-2,-1,-1
1615918637883186,1,1,-1,-1,0,-4,0,-2
1615918637883186,-3,-3,-3,-3,-1,-6,-1,-3
1615918637884186,0,-1,2,3,-2,1,2,-1
1615918637884186,-1,-2,-1,-2,0,1,-1,-2
1615918637905697,0,-1,0,0,-1,-1,0,-1
1615918637905697,-2,-2,-1,0,-1,-1,-1,-1
1615918637906697,-1,-1,-1,-1,1,-1,-3,-2
1615918637906697,-1,0,0,-1,-1,-1,0,0
1615918637918907,-1,-1,-2,-1,-1,0,-2,-1
1615918637918907,-1,-2,-1,-1,0,0,0,-1
1615918637927884,-3,0,-3,-1,1,-2,-2,-1
1615918637927884,0,0,-1,0,-1,-3,0,-2
1615918637942845,-1,0,-2,-1,-2,-1,-1,-1
1615918637942845,-1,-1,1,0,1,-3,-1,-3
1615918637944839,0,-1,-1,0,1,0,0,0
1615918637944839,0,-1,-1,-1,-2,-2,0,-1
1615918637964816,-2,0,-1,-1,-4,-2,-1,-1
1615918637964816,-2,-1,-1,1,-2,0,-1,1
1615918637966811,0,0,0,-1,-5,-2,-1,-2
1615918637966811,-1,-2,-2,-1,0,1,0,-1
1615918637978836,-1,-2,-2,-1,0,-3,-2,-1
1615918637978836,-1,0,0,-1,1,0,-1,0
1615918637987817,0,0,0,-2,-1,-3,1,-1
1615918637987817,-2,-1,-1,1,-1,0,-2,-2
1615918638002772,-1,-3,-2,0,0,-1,-3,0
1615918638002772,0,-2,0,-2,-3,1,-2,0
1615918638004767,-2,-1,0,0,1,-2,-1,-2
1615918638004767,-1,0,-1,-1,-2,-2,2,-1
1615918638025768,-2,0,1,-1,-1,-2,-1,-1
1615918638025768,-2,-2,-2,0,-1,0,-1,-1
1615918638027453,0,-2,-2,-2,-1,0,-3,-1
1615918638027453,-1,-3,-2,-1,1,-1,-2,0
1615918638039752,1,0,-2,-2,1,1,0,0
1615918638039752,-1,-1,-1,-3,-2,-2,1,0
1615918638047763,-1,0,-1,1,0,-3,-1,-1
1615918638047763,0,2,-2,-1,0,-1,0,0
1615918638062720,0,-1,-2,-1,0,-2,-2,-1
1615918638062720,-1,-1,0,-1,-1,-4,-2,-4
1615918638064692,-2,-1,0,-1,-1,2,1,0
1615918638064692,-3,-2,-1,0,0,-4,-2,-1
1615918638085769,-1,-1,1,-1,0,2,0,-2
1615918638085769,0,-1,-1,-1,0,-1,0,-1
1615918638086751,-2,0,-2,0,0,-3,-1,0
1615918638086751,-1,-1,-2,-2,-2,-2,1,0
1615918638098955,-1,0,-2,-2,-2,0,-1,1
1615918638098955,-1,1,1,-1,-2,-1,-2,0
1615918638107599,0,-2,-1,-4,-1,-9,-2,-2
1615918638107599,-2,-2,2,0,2,0,0,-1
1615918638130788,-2,0,-3,-2,-2,0,-1,-2
1615918638130788,-2,-1,-2,1,-2,1,1,-1
1615918638131788,1,-1,0,0,0,2,1,0
1615918638131788,0,1,-2,-1,-2,-4,-2,0
1615918638144796,-1,-1,-1,-1,0,0,-1,0
1615918638144796,0,0,-2,-2,-1,1,-2,0
1615918638146767,0,-2,-1,-1,0,3,-2,-1
1615918638146767,0,-2,-2,-3,-2,0,0,-1
1615918638158760,-2,-1,-2,0,-1,1,-1,-1
1615918638158760,0,-2,0,2,1,-2,-1,0
1615918638167543,0,1,-1,-1,-2,0,2,0
1615918638167543,0,0,-1,0,-2,-2,-2,-1
1615918638183011,0,-1,0,-2,-3,-1,-1,-1
1615918638183011,-1,0,-1,-3,-2,0,0,0
1615918638184008,0,-2,-2,-1,0,2,-2,0
1615918638184008,-1,-2,1,-1,1,1,0,-3
1615918638205200,1,0,-1,0,-1,-1,0,0
1615918638205200,-1,-2,-1,-2,-1,-1,-3,-1
1615918638207195,-2,0,-2,1,-1,0,0,-2
1615918638207195,-1,-3,0,-2,0,0,0,-1
1615918638218807,-1,0,0,2,0,-1,1,-2
1615918638218807,0,-1,-1,-3,-1,-1,2,-2
1615918638227586,0,-2,-1,1,-2,0,0,0
1615918638227586,-1,-3,2,0,-1,0,-2,0
1615918638243157,1,-2,0,-2,-1,-1,0,0
1615918638243157,-1,0,-3,-1,-1,0,-2,0
1615918638244153,-2,-2,-1,-3,-2,-1,-2,0
1615918638244153,1,0,-1,-1,-2,-1,0,0
1615918638265093,-1,-3,-1,-1,0,-3,1,-2
1615918638265093,-3,0,0,1,-1,-1,0,0
1615918638271893,-2,-1,-2,-3,-1,-2,-1,-1
1615918638271893,-2,-1,-1,-1,0,2,-1,-1
1615918638278784,-1,0,0,1,1,-4,-4,-2
1615918638278784,0,0,-2,-2,-3,-1,0,-3
1615918638288171,0,0,-3,-2,-2,-1,-1,1
1615918638288171,-2,-2,-1,1,2,1,1,0
1615918638303302,-1,-2,-3,-1,0,-1,0,0
1615918638303302,1,-1,0,-1,2,1,1,-1
1615918638304265,-1,-2,1,-1,-2,-2,-2,-3
1615918638304265,-1,-2,-2,-1,-2,-3,-1,-1
1615918638325773,-2,0,-1,-3,-2,-2,-2,-1
1615918638325773,0,-1,-1,2,-2,-1,-1,-1
1615918638326629,0,-1,-2,0,0,-1,-1,-3
1615918638326629,-1,0,-1,-2,0,0,1,-1
1615918638339475,-1,0,-2,0,-2,1,0,-1
1615918638339475,-1,-1,-4,-3,-2,-2,-1,0
1615918638347606,-2,0,0,-2,-1,-2,-3,-3
1615918638347606,-1,-2,-3,-2,-3,-3,-4,-1
1615918638362787,0,-1,-1,0,1,0,0,-2
1615918638362787,-1,0,0,-2,0,0,-1,1
1615918638364785,-1,-1,2,1,1,0,1,0
1615918638364785,1,0,-2,-3,-2,-2,0,-2
1615918638386258,-1,-2,-1,-1,0,0,-1,-1
1615918638386258,0,-1,1,2,-1,-2,-1,-1
1615918638387257,-1,0,-2,-1,0,2,0,0
1615918638387257,-2,-1,-2,-1,-2,-2,-2,0
1615918638399291,-1,0,-2,-2,-2,0,-1,1
1615918638399291,-1,-2,-4,-1,0,-3,-2,-2
1615918638407659,-1,-1,0,0,-1,0,1,-2
1615918638407659,-1,-2,-1,1,-2,2,-1,0
1615918638422779,0,-3,-1,-1,-2,-1,-1,1
1615918638422779,-1,-2,-2,-2,0,-3,-3,-2
1615918638424843,-3,-1,-2,-2,-4,-2,-2,-1
1615918638424843,1,0,0,-1,-2,-1,0,1
1615918638445809,0,1,-1,0,0,-2,0,0
1615918638445809,-3,0,-2,0,-2,-3,-1,-3
1615918638446809,-1,-3,0,-1,-1,-1,1,-1
1615918638446809,-1,0,0,-1,-4,-3,-1,-2
1615918638458951,0,-1,0,-1,0,0,-1,0
1615918638458951,0,0,1,0,0,-1,1,-1
1615918638467629,0,-2,-2,1,-2,-1,-1,0
1615918638467629,-1,0,0,0,1,-1,-1,1
1615918638483216,-1,-1,0,-1,0,-2,-1,-2
1615918638483216,-1,0,-2,0,-2,0,-1,-1
1615918638484213,-2,0,0,-2,0,0,0,-1
1615918638484213,-1,-1,-2,-2,-1,2,-1,-1
1615918638505311,-2,-1,-2,-1,-1,-1,-1,0
1615918638505311,0,-4,-1,-3,0,0,0,-1
1615918638507235,0,-2,-1,-2,0,-3,0,0
1615918638507235,-1,-1,-1,-1,0,1,-1,-3
1615918638518796,-1,0,-1,0,2,-1,-2,-1
1615918638518796,-1,-3,0,-1,1,1,-1,0
1615918638527687,0,3,-3,-3,0,0,-1,-1
1615918638527687,0,-1,0,0,-1,-2,-1,1
1615918638543168,1,-1,-1,0,-1,-1,-2,-2
1615918638543168,0,-1,-1,-1,0,0,0,-1
1615918638544166,1,0,-1,0,-3,0,-2,0
1615918638544166,-2,-1,-3,-3,-1,-5,-2,-2
1615918638565790,-2,-4,-1,-3,0,-2,-2,-2
1615918638565790,-2,-1,-1,0,0,-1,-1,0
1615918638567348,0,-1,0,0,-2,-1,-3,-1
1615918638567348,0,-1,-2,1,1,-1,1,-1
1615918638579454,0,-2,0,-1,-1,1,-2,-3
1615918638579454,-1,-3,-2,-2,-1,-3,-2,-2
1615918638587520,0,-1,-1,0,-2,-3,-1,1
1615918638587520,-1,-2,-1,-2,-2,-1,-2,-1
1615918638602507,-1,0,0,0,-2,-1,-1,-1
1615918638602507,-1,-1,0,-3,-2,-1,-1,-1
1615918638604476,-1,-2,-1,-2,0,-2,-1,-2
1615918638604476,0,1,0,-1,-2,-1,-1,0
1615918638625838,-2,-2,-3,-2,-3,-5,-1,0
1615918638625838,-2,1,-1,1,-2,0,-3,-1
1615918638627452,-1,0,-1,0,0,-1,-1,0
1615918638627452,-1,1,-1,-1,-3,1,-1,-1
1615918638639485,-1,0,-3,0,2,0,-1,0
1615918638639485,0,2,0,-1,0,-2,-2,-2
1615918638648345,-2,-2,-1,-2,-1,-1,0,-1
1615918638648345,-2,0,-1,-1,1,0,-1,0
1615918638662794,-2,-1,-1,-1,-2,0,2,0
1615918638662794,0,0,-2,-1,-1,3,-1,-2
1615918638664790,-2,-1,-1,-2,-1,0,-2,-1
1615918638664790,0,-1,-2,0,0,-2,-2,-3
1615918638685839,1,2,1,-1,1,-1,1,1
1615918638685839,-2,-2,-2,-1,-3,-4,-3,0
1615918638686839,-1,0,-1,1,0,1,2,2
1615918638686839,-1,-3,-2,-2,0,0,1,-1
1615918638708165,0,-1,-2,-1,-3,-1,-1,1
1615918638708165,0,0,0,-1,0,0,0,0
1615918638709164,0,-1,-1,1,0,0,-1,-2
1615918638709164,-1,-2,0,0,-2,-1,-2,-2
1615918638722485,-1,-1,-1,-1,-1,0,0,-1
1615918638722485,-1,-1,2,-1,-1,-2,0,0
1615918638724480,-3,-2,1,1,-1,-2,-2,-2
1615918638724480,0,0,-2,-1,-1,0,0,0
1615918638745017,0,0,-1,0,-3,2,-1,-1
1615918638745017,-1,0,-2,1,1,1,0,-2
1615918638746550,0,-1,0,-1,-2,-1,-3,-1
1615918638746550,-1,-1,1,-1,-1,2,-1,-2
1615918638768202,-1,-2,0,-1,-1,-1,-1,0
1615918638768202,0,-1,0,-1,-1,0,0,-1
1615918638769475,1,-1,-1,-2,-1,-2,-1,0
1615918638769475,0,-2,-3,1,1,0,-1,0
1615918638782815,-2,-2,-1,-3,-2,-2,-2,-1
1615918638782815,-1,-1,0,-1,0,-3,-2,-1
1615918638784808,-4,-2,-1,0,-1,-1,-1,0
1615918638784808,-1,-1,0,1,0,-2,-1,0
1615918638805039,-3,0,-3,-3,-2,-1,0,-2
1615918638805039,0,0,-3,0,1,-1,-1,-1
1615918638807033,1,-1,-2,-2,0,-1,-1,-1
1615918638807033,-3,-1,0,-2,-1,-2,-1,-2
1615918638828313,-2,-2,1,-1,-1,1,0,0
1615918638828313,-3,-1,-2,-2,0,-1,-1,-2
1615918638829181,-2,1,-3,0,-1,-3,0,-1
1615918638829181,-1,-1,-1,0,-3,1,-1,0
1615918638842748,-1,1,-1,0,0,0,-1,-2
1615918638842748,0,-1,-1,1,-1,3,1,1
1615918638844752,1,0,1,0,-1,1,-1,0
1615918638844752,0,-1,1,0,-2,-3,-2,-2
1615918638864839,-2,-3,-2,-1,1,-1,1,-3
1615918638864839,-2,-2,0,-2,-1,-2,-1,0
1615918638866835,1,-1,-1,0,-2,0,-1,-3
1615918638866835,-2,-1,-1,1,1,2,0,1
1615918638888314,1,-3,-2,-1,-2,0,-1,-1
1615918638888314,-2,-2,-1,-2,-3,0,0,-1
1615918638890699,-2,-2,-2,-3,1,0,0,0
1615918638890699,-2,-1,0,-3,-2,-1,0,-2
1615918638902711,-1,-1,-1,0,-1,-1,-3,-1
1615918638902711,1,1,0,0,-2,-2,-3,-1
1615918638916722,-2,1,0,0,-2,-1,2,-1
1615918638916722,-2,-1,0,-1,0,2,-1,-1
1615918638924791,-2,1,0,-1,0,0,-1,1
1615918638924791,-2,-1,-2,-1,-2,-2,-1,-1
1615918638927391,-2,-3,0,0,0,-1,-2,-1
1615918638927391,-2,-1,-2,1,0,-2,-1,-1
1615918638947464,0,-1,0,0,-1,-3,-2,0
1615918638947464,0,-2,-1,-1,-2,-1,-1,0
1615918638949433,-1,-3,-2,-1,-1,-2,-1,-2
1615918638949433,-2,0,-1,-2,-3,-4,-2,-1
1615918638962559,1,1,0,-1,0,-3,-1,-3
1615918638962559,-1,-1,-1,-4,-2,-4,-1,-1
1615918638969355,1,-1,-1,-2,-1,0,-1,1
1615918638969355,1,-2,-2,-2,-2,-3,-1,-1
1615918638985813,-2,-1,-3,0,0,-2,1,-1
1615918638985813,0,0,0,-2,-2,0,1,0
1615918638986708,-2,-2,0,-1,1,1,0,-1
1615918638986708,0,0,-2,-2,0,-2,-1,-1
1615918639007366,-2,-1,-2,-2,-3,1,-3,-2
1615918639007366,-2,-3,-2,0,1,0,-1,-2
1615918639009998,-1,1,-1,-3,-3,-2,1,0
1615918639009998,1,0,0,-2,-2,-1,-1,-1
1615918639022638,-2,-4,0,0,-2,0,-2,-1
1615918639022638,-2,0,0,-2,2,-2,-2,-2
1615918639028679,-2,-2,-2,-1,1,-2,-3,-3
1615918639028679,0,-2,-2,-1,-1,-2,-2,-1
1615918639045704,-1,-1,0,0,-1,1,-1,1
1615918639045704,-2,-1,-2,0,-1,0,0,0
1615918639046678,-2,1,0,0,1,0,-2,-1
1615918639046678,-2,-1,-1,0,-2,1,0,1
1615918639067370,-1,-1,-2,-3,1,0,-1,-1
1615918639067370,2,-2,-2,0,2,0,0,0
1615918639069365,-2,-3,-1,-1,-1,1,1,-2
1615918639069365,0,-1,0,-1,-2,-1,-1,1
1615918639082470,-1,0,-1,-2,-1,-3,-1,-2
1615918639082470,-1,-1,1,0,1,1,-1,-2
1615918639089506,0,-1,-1,-2,-1,-1,-1,-1
1615918639089506,-2,-2,-2,-3,2,-1,-2,-1
1615918639105003,1,0,-2,1,0,-3,-1,-2
1615918639105003,-2,1,-2,-3,-3,-3,-2,-2
1615918639106974,-2,-1,-2,-1,0,-2,-2,0
1615918639106974,-2,-1,-2,-1,0,-2,-1,-2
1615918639128094,-1,-2,-1,-1,-2,0,-3,1
1615918639128094,-1,-3,-1,0,0,-1,-2,-1
1615918639129901,1,-1,-2,-3,-3,-1,0,0
1615918639129901,-2,-1,-1,-2,-4,-3,0,-1
1615918639141891,-2,-1,-1,-1,-2,0,-1,-4
1615918639141891,1,0,-2,-1,-4,-3,-3,-1
1615918639148906,-2,-1,-2,0,1,0,-1,0
1615918639148906,0,0,-2,-1,-1,0,-1,-1
1615918639165489,1,-4,-1,0,0,1,0,-1
1615918639165489,-1,-1,-1,-4,-2,1,0,0
1615918639166486,1,-1,-2,1,-1,-2,-1,-1
1615918639166486,-1,-1,-1,0,2,0,0,-1
1615918639195874,-3,0,-1,0,-1,-1,0,0
1615918639195874,1,1,0,-1,-4,-3,-2,-1
1615918639197383,-2,-3,-2,-1,0,-1,-1,0
1615918639197383,-1,-1,0,-1,-2,1,-2,-1
1615918639201883,0,0,-1,-1,-1,-2,0,2
1615918639201883,-1,1,2,0,-1,0,0,0
1615918639216723,-1,-1,0,-1,-2,0,-2,-1
1615918639216723,-1,-1,0,-1,2,2,-1,0
1615918639225725,-1,-1,-1,0,-3,-3,-1,0
1615918639225725,-1,-2,-1,-1,1,0,1,0
1615918639226698,-2,0,0,-1,1,-2,-2,-1
1615918639226698,0,0,-1,-2,-1,1,0,-1
1615918639247920,0,-2,-1,-2,-1,-1,-1,0
1615918639247920,0,-1,-3,0,-1,-2,0,-1
1615918639249916,0,1,-2,-1,-3,-1,-1,0
1615918639249916,0,-1,0,-2,-2,-3,0,-1
1615918639261809,0,1,0,-1,-1,-1,0,-1
1615918639261809,-1,-2,-1,-1,0,-1,0,-1
1615918639270951,-1,-1,-1,0,-2,-1,-2,-2
1615918639270951,-2,0,-2,0,-1,-3,-1,0
1615918639285754,-1,0,-4,-1,-1,-2,0,0
1615918639285754,-2,-2,-1,-2,0,2,-1,0
1615918639286725,0,-2,1,-1,-1,-4,-1,-3
1615918639286725,0,-2,1,2,1,0,-1,-2
1615918639307692,-1,-1,-2,-2,-1,2,1,1
1615918639307692,-1,0,-3,-1,-2,-2,0,-1
1615918639309663,-3,0,-1,-2,-2,-1,1,1
1615918639309663,-1,1,1,-2,0,-2,-1,-1
1615918639321894,-2,-1,0,1,0,1,-1,-2
1615918639321894,-1,-1,-1,-2,-2,-3,-1,-1
1615918639337616,-1,0,-2,-2,-1,-3,-1,-3
1615918639337616,0,0,-1,-1,-2,0,-1,0
1615918639345603,-2,-1,-1,-2,0,-1,-2,-1
1615918639345603,-2,1,0,1,-2,-1,-4,0
1615918639346597,3,-2,-2,0,-1,-3,0,-1
1615918639346597,0,-1,-3,1,2,0,1,1
1615918639368239,0,0,-1,0,-2,-2,-1,-2
1615918639368239,-1,0,0,-2,0,0,-1,0
1615918639369567,-2,0,0,-1,-3,0,0,-2
1615918639369567,-1,-4,-1,-2,-3,-2,-1,-2
1615918639381542,1,-1,0,-1,-2,3,0,0
1615918639381542,0,0,-2,-1,-2,-2,-2,-3
1615918639390096,0,-1,-1,-1,0,2,-1,1
1615918639390096,1,-2,0,-1,0,2,0,-3
1615918639405425,-2,0,0,0,-3,-2,-2,-1
1615918639405425,-1,-1,-1,-2,-1,-1,1,0
1615918639407422,-3,0,-1,-2,0,1,0,-1
1615918639407422,-2,-2,-3,-1,-3,0,-2,-1
1615918639427602,-1,-3,0,0,0,-2,-3,-2
1615918639427602,-1,0,-2,0,-1,1,1,-2
1615918639429895,-1,-1,-3,-3,-2,-2,-1,0
1615918639429895,-3,-1,0,0,0,-1,-2,-1
1615918639441020,-2,-2,-1,-3,0,-2,0,-1
1615918639441020,0,-2,0,0,-1,-3,-1,0
1615918639450007,-3,-1,-3,0,2,0,-1,-1
1615918639450007,-1,-2,-1,-1,0,-1,0,0
1615918639464732,0,0,-3,-2,0,0,-1,-2
1615918639464732,-1,-1,0,-2,-2,-2,-3,-1
1615918639473450,1,-2,0,-1,-1,1,0,-1
1615918639473450,-2,-1,1,0,-2,-3,-1,-1
1615918639487792,-1,-3,-2,0,-2,-4,0,0
1615918639487792,-1,0,0,-1,0,0,0,1
1615918639493795,0,0,1,0,-1,0,0,-1
1615918639493795,0,0,-2,-2,-1,-1,-1,-1
1615918639501781,-1,-2,-2,-2,-4,-2,-2,-1
1615918639501781,-1,-2,-1,1,-1,0,-2,-1
1615918639517502,0,-2,1,1,-2,-1,0,0
1615918639517502,1,0,0,-2,-4,0,2,0
1615918639525758,-1,1,0,-3,0,0,0,0
1615918639525758,-2,-3,-2,1,-3,0,-1,0
1615918639526757,-2,0,-1,-1,-1,-1,-2,1
1615918639526757,-2,-2,-2,-2,0,-2,-2,-1
1615918639547660,-2,-3,-2,-1,0,-1,0,-1
1615918639547660,0,0,-2,-1,-1,2,0,0
1615918639549656,0,0,-2,0,-1,-2,0,-2
1615918639549656,-1,-1,-2,-2,-2,-2,0,-1
1615918639561621,-1,-1,-2,-2,0,-1,0,-2
1615918639561621,-2,-2,-2,-1,1,1,0,-1
1615918639570905,-2,-3,-2,-2,-1,-2,-2,-1
1615918639570905,-1,0,0,0,-1,-1,-1,-2
1615918639585443,-1,-4,-1,1,1,1,0,0
1615918639585443,1,1,1,-1,-1,-2,-1,0
1615918639586440,-1,-2,-1,-1,1,1,-2,-3
1615918639586440,-1,-2,-3,-3,0,-1,-2,-1
1615918639607553,-2,0,-1,0,-2,1,-2,-1
1615918639607553,-2,-1,-1,-1,-2,-3,-1,-2
1615918639609898,-1,-2,-1,-1,0,-1,0,-2
1615918639609898,-1,1,0,0,-1,-1,-2,-1
1615918639621696,-2,-1,-2,1,-2,-1,-1,1
1615918639621696,0,0,-2,-1,1,-2,-1,-2
1615918639630791,0,0,1,0,-2,1,-1,1
1615918639630791,0,-1,-2,-2,-2,-3,-1,-1
1615918639645348,0,-2,-1,0,0,0,0,-1
1615918639645348,-2,-3,-1,0,-2,1,0,-1
1615918639647367,0,0,-1,-2,-1,-1,-1,-1
1615918639647367,-1,-1,0,-1,-2,1,-2,0
1615918639668293,0,2,0,-1,-2,-1,-2,-1
1615918639668293,-1,1,-1,-3,1,1,-2,-2
1615918639669898,-2,0,0,-3,-4,0,1,1
1615918639669898,-1,-2,-1,0,0,-1,0,-2
1615918639690704,-1,0,0,-1,-1,-3,-1,0
1615918639690704,1,-1,-1,0,-2,-1,-1,0
1615918639692698,-2,-1,-3,-2,-2,-1,0,-1
1615918639692698,-1,-2,0,-2,0,-2,-1,0
1615918639704957,-1,-1,-3,0,1,0,-2,-1
1615918639704957,-1,-2,-3,1,0,-1,-1,-1
1615918639706921,-1,-1,0,1,-1,0,0,0
1615918639706921,1,-1,-4,-1,-2,-5,-2,0
1615918639728243,-1,-1,1,1,1,0,-2,-2
1615918639728243,-1,0,-1,-2,0,-1,0,0
1615918639729164,-1,-1,-3,-3,-2,-3,-2,0
1615918639729164,-2,-1,-2,0,0,1,0,0
1615918639750445,0,0,-1,-1,-1,-2,0,0
1615918639750445,-1,-2,-2,-1,-3,-2,-2,-3
1615918639752438,-1,-2,0,0,-2,0,0,-1
1615918639752438,-1,-1,-2,-2,-1,1,-1,-2
1615918639764404,0,0,-2,-3,-3,-2,-1,0
1615918639764404,-1,-2,-1,-2,-2,0,-1,0
1615918639771385,1,0,-1,0,-1,-1,-2,-1
1615918639771385,-1,0,0,-2,-1,-3,-2,-1
1615918639787324,-2,-1,-1,-1,0,0,1,0
1615918639787324,-1,0,2,1,-1,0,-1,-1
1615918639795302,-3,-2,-2,-1,0,0,-1,0
1615918639795302,0,-2,-2,-1,-1,2,-2,0
1615918639810263,0,-1,-1,0,-1,1,0,-1
1615918639810263,-3,-1,-1,-2,0,-3,0,-1
1615918639811631,-1,0,-1,0,0,0,0,-1
1615918639811631,-1,0,0,0,2,0,0,1
1615918639824529,0,-2,1,0,-2,-1,-2,-1
1615918639824529,-3,-3,-2,-1,0,0,-1,0
1615918639831626,1,0,1,0,-1,-3,-3,-2
1615918639831626,-2,-1,-2,-1,-3,-1,0,-1
1615918639847551,-1,0,0,-1,-1,0,0,-1
1615918639847551,0,-1,-3,0,-2,-1,-1,-2
1615918639849546,0,1,0,0,-2,-2,-2,-1
1615918639849546,-3,-1,0,-2,-3,-3,0,-3
1615918639870315,-1,-2,-1,-2,-1,-2,-1,-2
1615918639870315,1,-1,0,-1,0,-4,-1,-1
1615918639872310,-1,-1,-2,-1,0,-1,-1,0
1615918639872310,0,-1,-3,-1,-1,-5,-2,-2
1615918639884502,-3,-2,-1,-1,-1,-2,-1,-1
1615918639884502,0,-2,0,-1,0,1,1,-1
1615918639891933,-2,-4,-1,0,-1,-1,-2,-2
1615918639891933,1,0,0,-1,0,-1,-1,1
1615918639907486,-1,0,-3,0,-2,-1,-2,-2
1615918639907486,-1,1,-3,1,0,-1,0,0
1615918639909456,-3,-3,-2,-3,-1,-2,0,-1
1615918639909456,-1,-1,0,-2,-3,0,0,-1
1615918639929988,-2,-1,0,-2,0,-1,-1,0
1615918639929988,0,-3,0,-1,-2,-1,0,1
1615918639931981,-1,-2,-2,-2,2,1,-1,-2
1615918639931981,0,-3,-1,1,0,1,-1,-1
1615918639945039,0,-3,-3,-3,-1,-1,0,-2
1615918639945039,0,-2,0,-2,0,-1,-1,0
1615918639951023,-1,-1,-2,0,-3,-1,0,-1
1615918639951023,-2,-1,0,-2,0,2,0,-2
1615918639967916,0,-1,-2,1,0,1,0,-1
1615918639967916,-1,0,-1,-4,-4,-4,-3,-2
1615918639969952,-1,-2,-1,-2,0,0,0,-2
1615918639969952,-1,0,-1,-1,0,-2,-1,-1
1615918639990714,-1,0,0,0,-3,1,-2,-2
1615918639990714,-1,-1,-3,1,0,-2,0,-1
1615918639991706,-1,-2,0,-1,-2,-2,-1,0
1615918639991706,-3,-1,0,-1,-2,1,0,1
1615918640004644,1,-1,-1,-1,0,-1,-3,-2
1615918640004644,-2,-2,1,0,1,2,0,-1
1615918640011945,-1,0,-2,-2,2,2,-1,-1
1615918640011945,-1,0,-1,0,-1,2,0,0
1615918640028683,-2,0,-2,-2,-2,-3,0,0
1615918640028683,-2,-2,-1,2,0,-1,-1,-1
1615918640029691,-2,0,-1,-1,-4,-1,-1,0
1615918640029691,-1,-3,-1,-1,-1,1,0,-1
1615918640050717,-2,-2,0,-1,1,-1,1,-1
1615918640050717,-1,1,1,-2,-4,0,0,-4
1615918640051715,-1,0,-1,-1,-2,-4,-2,-1
1615918640051715,0,-1,-2,-1,-1,-1,-1,-1
1615918640072656,0,0,0,-2,-3,-2,-1,-2
1615918640072656,-2,-3,1,0,0,-1,0,2
1615918640074652,1,0,0,3,0,-3,-3,0
1615918640074652,-2,0,-1,1,0,0,0,-1
1615918640088284,-1,-1,-1,-1,-2,0,-1,0
1615918640088284,-1,0,-2,-2,-2,-1,-1,-1
1615918640090679,-2,-1,0,-1,-1,2,0,-1
1615918640090679,1,1,-1,0,0,-2,-1,-1
1615918640109850,-2,-3,0,-1,-1,1,-1,0
1615918640109850,-1,-1,-3,1,-1,-1,-1,-2
1615918640111847,0,-1,-2,0,1,-1,-1,0
1615918640111847,0,-2,-2,-1,-2,1,0,-3
1615918640125120,0,2,0,-2,-2,2,-1,0
1615918640125120,2,-2,-1,0,-1,-1,0,0
1615918640131871,-1,-3,1,-1,-2,-2,-2,0
1615918640131871,-1,-3,0,0,-1,-2,-2,-2
1615918640147884,0,-2,-1,1,-1,-1,-1,-1
1615918640147884,-2,1,0,-3,-1,-4,-1,1
1615918640149879,-1,-1,-1,-3,-1,0,1,-1
1615918640149879,-1,-2,-1,0,0,-2,-3,0
1615918640170404,0,0,-1,-1,-1,0,-2,0
1615918640170404,-1,-1,-2,-1,-1,1,-2,0
1615918640171458,-1,0,0,1,-1,0,0,0
1615918640171458,-1,-1,-1,-4,-2,-2,-2,-3
1615918640183831,-2,-1,-1,0,-1,-2,-1,0
1615918640183831,1,-1,-2,-1,0,-1,-2,-1
1615918640193530,0,-1,-2,-1,2,2,-1,0
1615918640193530,1,-1,0,-2,-1,-1,-1,0
1615918640214863,-1,-2,-2,0,0,-2,-3,-1
1615918640214863,-2,0,0,-1,-2,-3,-1,-1
1615918640216632,-1,-1,0,-3,-2,2,1,-2
1615918640216632,0,0,-2,-2,-3,-1,-2,1
1615918640230897,-1,-1,1,-2,0,0,-1,-1
1615918640230897,-2,-3,-2,-1,1,0,1,-2
1615918640231897,0,0,-2,-2,-3,-3,0,-1
1615918640231897,-2,-2,-1,-1,2,0,0,-1
1615918640244101,1,-1,-3,0,-1,-5,0,-2
1615918640244101,-2,0,1,0,0,-1,-2,-2
1615918640252889,-3,-3,-1,-1,0,-2,-1,-2
1615918640252889,-2,0,1,0,-1,-2,1,-1
1615918640268264,0,0,-1,-1,-1,-1,-1,-2
1615918640268264,0,0,-1,-2,2,1,1,-2
1615918640269449,-1,0,0,1,-3,-1,0,0
1615918640269449,-1,0,0,1,-1,1,-1,-1
1615918640290922,-2,-2,-2,-2,-4,0,-1,-1
1615918640290922,-1,0,-3,-1,-2,-2,-2,0
1615918640292918,-3,-2,-2,-1,0,-2,-1,-3
1615918640292918,-1,0,-1,-2,-2,0,-1,-1
1615918640303989,0,-2,-1,-1,-1,3,1,0
1615918640303989,-1,-2,-1,2,-2,-2,0,-2
1615918640313138,1,1,-1,-1,0,-1,-1,1
1615918640313138,-1,-3,0,0,-1,-4,-2,0
1615918640328389,-2,-2,-1,0,3,0,0,-1
1615918640328389,-3,-2,-1,-3,-1,-2,-1,-1
1615918640329286,0,-2,0,-1,-1,-2,-2,-2
1615918640329286,-1,0,-1,0,-1,0,-1,-2
1615918640350810,-1,1,-1,-2,0,-1,-1,-2
1615918640350810,-2,-1,-1,0,-2,0,0,0
1615918640351807,0,0,-2,0,-3,-3,-2,-2
1615918640351807,-2,-2,0,1,-2,-2,-1,-1
1615918640363989,-2,-1,-1,-2,-1,-2,-1,-1
1615918640363989,-2,-1,0,-1,-2,-2,1,-1
1615918640372729,-1,2,-1,-2,-1,0,1,-1
1615918640372729,0,0,-2,0,0,1,0,0
1615918640388330,1,-2,-3,-4,-1,2,-1,1
1615918640388330,0,-1,-1,-1,-2,-1,-1,-1
1615918640390705,-3,0,-1,0,-1,-2,-3,-2
1615918640390705,-1,-2,0,-2,-1,-1,0,0
1615918640409876,-1,1,0,0,0,0,-2,0
1615918640409876,0,1,-1,-1,1,-1,-1,-1
1615918640411588,-1,-2,0,-3,0,-1,0,-1
1615918640411588,0,-2,-1,-1,-1,-2,-1,-1
1615918640423696,0,0,-1,-1,-1,-2,-2,-2
1615918640423696,-2,-2,0,-2,-2,-2,-1,-2
1615918640432584,-1,-1,0,-1,-2,2,1,-1
1615918640432584,-2,-2,-2,-1,-3,-1,-2,-2
1615918640448236,0,-2,1,-3,-2,-3,0,-1
1615918640448236,-1,1,-2,-1,2,2,-2,1
1615918640449232,-1,-1,-2,-3,-1,-1,-1,-1
1615918640449232,-1,0,-3,0,2,-3,0,-1
1615918640469945,-1,-2,0,-1,-2,-3,-1,-2
1615918640469945,-1,-2,-1,-1,-2,-1,-3,-1
1615918640471940,-1,-1,-1,1,1,1,-1,1
1615918640471940,-1,0,-2,0,0,0,-1,1
1615918640483726,0,0,1,0,-2,0,-1,0
1615918640483726,0,-3,0,-2,-1,0,0,-2
1615918640492696,-1,-1,2,1,0,-1,-1,0
1615918640492696,-1,-1,-2,-2,-3,-1,-1,-1
1615918640507681,-2,0,-2,-1,-2,-4,-2,-1
1615918640507681,-1,-2,0,0,-1,-1,-1,-1
1615918640509652,0,-1,-1,-1,-2,0,-1,-1
1615918640509652,-1,-3,-1,-1,0,-1,-2,-2
1615918640529625,-1,-1,0,0,-1,-4,1,-1
1615918640529625,-1,-2,-1,-1,0,-1,0,-1
1615918640537576,-1,-1,-1,-1,-2,-3,-3,-3
1615918640537576,-1,-2,-1,-2,0,0,-2,-1
1615918640544558,-2,-3,-3,-1,0,2,1,-1
1615918640544558,-1,1,0,-2,-2,-2,-3,0
1615918640552642,0,0,-3,1,0,-1,-1,0
1615918640552642,0,1,1,-1,-2,-1,0,1
1615918640567622,-1,-2,-1,-1,-1,0,-1,-2
1615918640567622,-1,0,-3,-2,-1,-1,0,0
1615918640569621,-1,-2,-3,-2,-1,-3,-1,-2
1615918640569621,-1,0,-1,-2,-2,0,-1,-1
1615918640590881,0,-1,0,-2,-1,1,-1,0
1615918640590881,1,-3,1,-1,-1,2,-1,1
1615918640592878,0,-1,0,-1,-2,1,-2,-1
1615918640592878,-2,-1,-1,-1,0,-1,-1,-1
1615918640612861,0,0,-1,1,-2,-1,0,0
1615918640612861,-2,-1,-3,0,0,-4,-2,-2
1615918640614856,-2,-1,1,-2,-3,-1,0,0
1615918640614856,0,-1,0,-2,0,1,0,0
1615918640627745,-2,-1,1,2,-1,-1,-1,0
1615918640627745,-1,-1,-1,0,1,-1,0,-2
1615918640629742,0,1,-3,-2,0,-3,-1,0
1615918640629742,0,0,-1,0,-2,0,-1,-1
1615918640650387,-2,0,-3,-3,0,-1,-1,-2
1615918640650387,0,-1,0,1,0,-1,1,2
1615918640652357,-2,-2,1,0,0,0,-1,-1
1615918640652357,-2,-3,-3,-1,0,-3,-1,-2
1615918640672571,0,-1,-1,0,0,0,-1,0
1615918640672571,-1,0,-1,-3,-2,2,-1,0
1615918640674565,-1,-2,-1,-1,0,0,-1,-1
1615918640674565,-1,-1,0,-1,0,-1,0,1
1615918640687727,-2,-2,-1,-1,-1,-2,-1,-1
1615918640687727,-1,0,-1,0,-1,-1,-3,-1
1615918640690750,-1,-2,-2,-2,-1,-1,0,0
1615918640690750,-1,-1,-1,0,-3,-2,-1,-1
1615918640710609,-1,0,-1,0,-1,-4,-2,0
1615918640710609,-2,-1,-1,-1,-1,-1,-1,0
1615918640711608,-1,-1,0,-1,0,-1,-1,-2
1615918640711608,-1,0,0,-1,1,0,-2,-1
1615918640733291,0,-4,-2,-2,-1,-3,0,-2
1615918640733291,0,0,0,1,-3,-1,0,-1
1615918640734287,0,-2,0,-1,1,0,-1,0
1615918640734287,-1,-2,-1,-4,-2,-3,-1,-2
1615918640747386,-1,-2,-2,-1,0,1,-2,-1
1615918640747386,1,-2,-2,0,-1,2,-1,-2
1615918640754370,-1,0,-1,-1,-2,1,-1,-1
1615918640754370,-2,-2,-1,1,1,-1,0,-2
1615918640770362,1,-1,0,1,0,2,-1,0
1615918640770362,-3,0,0,-2,-1,-1,-2,0
1615918640772364,-1,-1,-3,-1,-2,1,-1,1
1615918640772364,0,-1,-1,-1,-3,-3,-1,-1
1615918640793303,-1,0,-3,-3,-2,-1,-3,-1
1615918640793303,-2,-1,-3,-2,1,-1,0,-2
1615918640794300,0,0,0,-2,-1,-2,1,-1
1615918640794300,0,1,0,-1,-1,0,-1,0
1615918640806267,0,0,-1,1,0,-2,-1,-1
1615918640806267,-2,-4,-2,0,-2,-1,-1,-2
1615918640815244,-2,-1,-1,-2,0,-3,-3,-2
1615918640815244,-1,0,-2,-2,0,1,-1,0
1615918640830357,-1,-2,1,-2,-2,-4,-1,-1
1615918640830357,-1,0,-1,-1,-1,-3,-1,0
1615918640832353,-1,-3,-1,-2,-3,0,-2,-1
1615918640832353,0,0,-1,-1,0,4,-1,0
