timestamp,emg1,emg2,emg3,emg4,emg5,emg6,emg7,emg8
1615918655433246,-2,0,1,-3,-2,0,-1,-2
1615918655433246,0,-1,-2,-2,-1,-2,-1,-1
1615918655435244,-2,-1,-2,1,-1,-1,-2,-2
1615918655435244,0,-2,-1,-1,1,0,-3,-2
1615918655448745,0,1,-2,-1,-2,-1,0,-1
1615918655448745,0,0,0,0,-1,-2,0,1
1615918655450718,-1,0,-1,-2,0,-1,0,0
1615918655450718,-2,0,-1,-1,-1,-2,0,-1
1615918655478643,-3,-2,0,-1,-2,-1,-3,-1
1615918655478643,-1,-1,-1,0,-2,0,-1,-2
1615918655479640,-1,-2,-2,0,-1,-3,0,-1
1615918655479640,0,-2,0,0,-1,1,-1,1
1615918655485002,1,-2,0,-1,0,1,-1,0
1615918655485002,-2,-1,0,-1,0,0,-1,-1
1615918655494503,-1,-1,-2,0,-1,-1,-2,-3
1615918655494503,-1,-1,-2,-1,-1,-1,-1,-2
1615918655508474,0,-3,-1,-3,-3,1,-1,0
1615918655508474,1,-1,-3,-2,-1,-2,-2,0
1615918655510467,-1,-1,-2,-2,0,-1,1,-2
1615918655510467,0,1,0,-1,-1,-1,0,-2
1615918655530713,-2,0,-1,0,-2,0,-1,-3
1615918655530713,1,-1,-1,-1,-3,-1,1,-1
1615918655538708,-1,-2,-1,0,-2,-2,0,-1
1615918655538708,1,0,0,-2,-2,-2,0,0
1615918655544673,0,-2,0,1,-1,-1,-2,0
1615918655544673,-2,0,-1,-1,-1,-1,-1,0
1615918655553649,-1,1,0,-1,-1,-1,-2,-1
1615918655553649,-1,0,-2,0,0,0,-2,1
1615918655568635,-1,-1,-2,-2,1,-1,0,-2
1615918655568635,1,0,1,-1,0,-2,-2,-1
1615918655569737,0,-3,-2,-1,-3,0,-2,2
1615918655569737,-2,-1,-1,1,0,-2,-1,0
1615918655590732,-1,-1,-1,-1,-1,1,-1,-3
1615918655590732,-2,-1,-1,-1,0,0,-3,-1
1615918655592726,-2,0,0,-3,-2,-2,-1,-1
1615918655592726,-2,-2,-1,-1,-2,-1,0,-1
1615918655604712,-2,-2,-2,-1,-1,0,0,1
1615918655604712,-1,1,-1,-3,1,-1,-1,-1
1615918655613667,-1,0,1,0,1,0,-1,-1
1615918655613667,0,-1,0,-3,-2,-1,0,-1
1615918655628763,1,0,-1,-1,-3,-1,0,1
1615918655628763,-1,-1,0,-2,-2,-2,-1,0
1615918655629760,0,-1,-1,0,0,-1,0,-1
1615918655629760,-3,-2,-1,-1,-2,-2,1,-2
1615918655650791,-1,-1,0,0,2,0,-2,-1
1615918655650791,-2,-1,-1,0,0,0,-1,0
1615918655652762,1,-1,-1,-1,-1,-2,-1,1
1615918655652762,-1,0,1,0,-1,0,0,0
1615918655664792,-2,-1,-1,-2,-1,-1,0,0
1615918655664792,-1,-1,-1,-2,-2,-2,0,-1
1615918655673812,-1,0,-1,-3,-2,-1,0,1
1615918655673812,0,-2,-2,-1,0,-1,-1,-2
1615918655688880,0,0,-1,-1,-1,-2,0,-1
1615918655688880,0,-2,0,-3,-2,-2,-2,0
1615918655689887,0,-2,-1,-1,0,-1,-1,-2
1615918655689887,0,-2,-2,-2,-1,-1,-2,-1
1615918655710859,-2,0,-2,-1,-1,-1,-1,-3
1615918655710859,0,-2,-4,-2,0,2,1,1
1615918655712822,1,1,1,0,-2,0,-2,-2
1615918655712822,-1,-1,-2,0,-2,1,0,0
1615918655724812,-1,-1,-1,-1,0,0,-1,0
1615918655724812,-2,-1,0,0,0,0,0,-1
1615918655733765,0,-1,-2,-1,-1,0,-1,0
1615918655733765,0,-1,-1,0,-1,0,-1,0
1615918655747754,0,-1,-2,-1,-1,0,-3,-1
1615918655747754,-2,-1,-2,-1,-1,-2,0,-1
1615918655755727,-2,1,-2,0,-1,-1,1,-1
1615918655755727,0,-2,0,-2,-2,-1,-3,-1
1615918655771497,0,-1,0,-2,-1,-1,1,-1
1615918655771497,1,-1,-1,-1,0,0,-1,0
1615918655772496,-2,-1,-2,1,-1,0,1,-1
1615918655772496,-1,-2,1,1,-2,-2,-1,-1
1615918655785172,-1,-1,0,1,-1,-1,1,0
1615918655785172,-1,-2,-2,0,-1,-2,-1,-1
1615918655793642,0,0,-2,0,-1,0,0,0
1615918655793642,-1,0,1,-2,0,-2,0,-1
1615918655807540,-2,-2,-1,-2,-2,-1,-2,-2
1615918655807540,0,-2,0,0,-2,-1,0,-2
1615918655815715,-2,-1,-1,-2,-1,-1,-1,1
1615918655815715,0,-1,-2,1,-1,-1,0,-1
1615918655830552,-1,0,-2,0,-1,-1,-2,1
1615918655830552,-3,-1,-2,-2,0,-1,-2,-5
1615918655830552,-1,-2,-1,-2,-1,-2,-2,0
1615918655830552,-3,-2,-2,-1,1,0,0,-1
1615918655852644,0,0,1,0,0,-2,-2,-1
1615918655852644,-1,-1,-1,0,-2,-2,-1,1
1615918655853642,1,-2,-2,0,0,1,0,-2
1615918655853642,-1,-1,-2,1,-2,-1,-3,0
1615918655867901,-1,-1,0,1,0,-1,-1,-1
1615918655867901,0,-1,0,-2,-2,-1,-1,0
1615918655868896,-2,-1,-1,-2,-1,-2,-1,-1
1615918655868896,1,0,0,0,-1,-1,-1,-2
1615918655890365,-1,-3,-2,-1,-2,0,1,0
1615918655890365,0,-2,-1,-2,1,-1,0,-1
1615918655891338,1,-2,1,-1,-2,-3,0,1
1615918655891338,0,1,-1,-1,1,-1,-1,-1
1615918655912429,-1,0,-1,-2,-1,-2,-2,-2
1615918655912429,-2,-1,0,0,1,0,0,0
1615918655913425,-2,-1,-3,-1,0,0,-1,1
1615918655913425,-3,0,0,-1,0,0,0,1
1615918655926876,-1,-1,-2,-1,-2,-2,-2,-1
1615918655926876,-1,-2,0,2,-1,-1,-1,-2
1615918655935820,0,1,0,0,-1,-2,-2,-3
1615918655935820,-1,-2,-2,-2,-1,0,-1,-2
1615918655950729,-2,-1,-4,-2,-1,0,-1,0
1615918655950729,0,0,-1,0,0,-1,-1,-1
1615918655950729,0,-1,-2,-1,-2,0,0,-1
1615918655950729,0,0,-1,-1,-2,0,-1,-1
1615918655972822,-1,-2,0,-2,-1,-2,-1,-2
1615918655972822,-2,0,-2,-3,0,0,-2,0
1615918655973821,-1,-1,0,0,0,0,-1,-2
1615918655973821,-1,-1,-1,0,-1,0,1,-1
1615918655987608,-1,-2,0,0,-1,-1,-1,-1
1615918655987608,-2,0,0,-2,-2,0,1,0
1615918655995359,-2,0,0,0,0,-2,-2,-2
1615918655995359,0,1,0,-1,0,-1,-1,-1
1615918656010435,0,-1,-3,-1,1,0,0,-1
1615918656010435,0,-1,-3,1,-1,-1,-1,-1
1615918656011365,-1,-2,-3,-3,-4,-1,0,-2
1615918656011365,0,-1,-1,-1,-3,-1,-1,0
1615918656032696,-1,-1,0,-4,-1,-1,-2,1
1615918656032696,-2,1,-2,-1,0,-2,0,0
1615918656033696,-2,-1,-2,-3,-1,0,-2,0
1615918656033696,-1,-1,-2,0,1,-2,-1,-2
1615918656047152,0,-1,-1,0,-1,-2,1,1
1615918656047152,-1,-1,-2,-2,-4,-1,0,-1
1615918656055784,-1,-1,-1,0,0,-1,-1,-1
1615918656055784,-2,-3,-1,-2,0,0,0,-1
1615918656070815,-3,0,0,0,-1,0,-1,-2
1615918656070815,0,-1,-3,-1,-2,1,-1,-1
1615918656070815,-1,-2,0,-1,-1,0,-1,2
1615918656070815,0,-2,-3,-2,0,0,-2,1
1615918656092880,-2,-1,-1,-2,-1,-1,-1,0
1615918656092880,-1,-1,-1,-1,-1,-2,-2,-2
1615918656094850,0,1,0,1,0,-1,0,-1
1615918656094850,0,0,-2,0,-2,-1,-1,-1
1615918656106853,1,0,-1,0,-2,0,-1,1
1615918656106853,0,-2,-1,0,1,1,-1,0
1615918656122729,0,-3,-2,-2,-1,-1,-3,-1
1615918656122729,-1,-1,0,-1,-1,-1,0,-1
1615918656130711,0,0,-1,0,-2,-2,-2,-1
1615918656130711,-1,0,0,-1,0,-1,-3,-2
1615918656130711,0,-1,-1,-2,-1,0,0,0
1615918656130711,-1,0,-3,-1,-2,-1,-2,-1
1615918656152450,-1,-1,-1,-1,-1,-3,0,-2
1615918656152450,-1,-1,0,-1,0,-2,0,0
1615918656153389,-1,0,-2,-1,0,-2,0,-1
1615918656153389,-1,-1,0,0,-2,0,-2,-1
1615918656167627,-1,-2,-2,-1,-2,-1,-1,-1
1615918656167627,-1,-1,-1,-2,0,-1,-1,-1
1615918656175637,-1,-1,0,0,0,-2,0,0
1615918656175637,-2,0,0,1,0,-2,1,0
1615918656190722,-3,0,-2,-1,0,-1,-1,-2
1615918656190722,0,0,-2,-1,-2,1,-2,0
1615918656190722,-1,-1,0,0,-3,-1,1,-2
1615918656190722,1,-1,-2,0,-3,-1,-1,-1
1615918656212667,0,-3,-1,0,-1,0,0,-1
1615918656212667,-1,0,-1,-1,0,-1,0,-2
1615918656213664,-1,-1,-2,-2,0,-2,-3,0
1615918656213664,-2,-1,-1,-1,-1,-1,-1,-1
1615918656227542,-1,-2,1,0,-3,-2,0,0
1615918656227542,-1,-2,0,0,0,-1,0,0
1615918656235553,-1,-2,-1,-2,0,1,-1,-1
1615918656235553,-1,-1,-2,0,-1,-1,-1,0
1615918656250178,0,0,-1,-1,-1,-1,1,-2
1615918656250178,0,0,1,-1,-1,0,-2,0
1615918656251175,-2,-1,-1,-1,0,0,0,-2
1615918656251175,-1,-1,-1,-1,-2,-1,-1,-3
1615918656272728,0,0,-1,-2,1,0,-2,-1
1615918656272728,-1,-3,-3,0,-1,-2,0,-2
1615918656273732,1,-1,-1,0,-1,-1,-2,1
1615918656273732,2,-2,-1,-1,-1,-2,-2,-1
1615918656287526,-1,-1,1,-2,-3,0,-1,-1
1615918656287526,-1,0,0,2,-2,-3,-1,-2
1615918656295533,-1,1,-3,1,1,-1,-1,0
1615918656295533,-2,-2,-1,-2,1,-1,0,0
1615918656310499,-1,0,-2,0,-1,0,-2,0
1615918656310499,-1,-2,-1,0,-1,-2,-1,0
1615918656311468,0,0,1,-1,-2,0,1,-1
1615918656311468,-1,0,-3,-1,-1,0,1,0
1615918656334716,-1,-1,0,-1,0,0,-2,-2
1615918656334716,0,-1,-1,-3,-1,1,0,-1
1615918656334716,0,-1,-1,-2,-2,-1,-2,0
1615918656334716,0,-1,1,0,-2,-3,-2,-1
1615918656355685,-1,0,-2,1,-1,0,-1,1
1615918656355685,0,-1,-2,-1,-1,0,0,-1
1615918656356671,-1,-1,0,-2,-1,-1,-2,-2
1615918656356671,-1,1,-2,0,1,-2,-2,-1
1615918656378709,0,-1,-1,-1,0,-3,-1,1
1615918656378709,-2,-1,-1,-1,-1,-1,0,0
1615918656379707,-2,-1,-3,2,-1,-1,-1,-1
1615918656379707,-2,-1,0,-1,-2,-2,1,0
1615918656400710,-1,0,0,0,0,-3,0,-1
1615918656400710,0,0,-2,-2,0,-1,-1,0
1615918656401704,-2,-1,0,-2,-1,-2,1,-1
1615918656401704,-2,-1,-1,-2,0,1,-1,-2
1615918656423889,0,0,-3,-1,-2,0,-1,0
1615918656423889,0,0,0,0,0,-2,0,-2
1615918656423889,-2,-1,-1,-1,0,1,-2,-2
1615918656423889,-2,-1,-1,-1,-1,-1,-2,-1
1615918656429873,-2,-1,-1,-2,-1,-1,-1,-1
1615918656429873,-2,-2,-1,0,-1,-1,-1,-1
1615918656430872,1,-1,-2,-1,-1,-1,1,0
1615918656430872,-1,-2,-2,0,-3,1,0,0
1615918656452809,-1,-3,-2,-1,0,0,0,-2
1615918656452809,-2,-2,0,0,-2,-2,0,-2
1615918656453806,0,0,-1,-1,-2,-1,-1,0
1615918656453806,0,-1,1,-2,-1,-2,0,-1
1615918656475747,-2,-1,-2,1,-1,-2,0,-1
1615918656475747,0,-3,0,-1,-1,1,-2,-1
1615918656476745,-1,-2,-1,0,-1,0,-1,-2
1615918656476745,0,-1,1,-1,-2,-2,-1,-1
1615918656490707,0,-2,0,-1,-1,1,-2,-2
1615918656490707,-2,-2,-2,-3,-2,-1,-1,0
1615918656490707,-2,-1,1,-1,0,-2,-2,0
1615918656490707,0,-1,-1,-1,0,0,-1,0
1615918656512649,0,0,-1,-2,0,0,0,-1
1615918656512649,-1,1,1,-1,1,-1,-1,0
1615918656513646,1,-1,-3,-1,-1,-3,-2,-2
1615918656513646,-1,-1,-1,-1,-1,-3,0,-1
1615918656535587,-1,1,-1,-1,-1,-2,-2,-1
1615918656535587,-1,0,-1,1,-1,-1,0,0
1615918656536584,-3,-1,-2,-1,-2,-2,-2,-1
1615918656536584,-2,1,-1,-1,-2,-2,-2,0
1615918656550549,-2,-2,1,0,0,-1,-2,0
1615918656550549,1,0,-1,-1,-1,-1,1,0
1615918656551545,0,-1,0,-1,-1,-1,1,-1
1615918656551545,-2,-2,-2,-2,-2,-1,-1,-1
1615918656580467,0,-1,0,-1,0,-1,0,-1
1615918656580467,0,0,-2,-2,0,1,-2,-2
1615918656581464,-2,1,-1,1,-1,-2,0,-2
1615918656581464,-1,-2,-3,1,-1,-1,-2,-2
1615918656603778,0,0,0,-2,-1,1,0,1
1615918656603778,-1,-1,0,-1,-2,-2,-2,-1
1615918656603778,1,-1,-2,-2,-1,-1,-1,-1
1615918656603778,0,-1,0,-1,-1,0,-2,-1
1615918656609762,-2,-1,0,-1,-2,-1,0,0
1615918656609762,-1,-3,0,-1,1,-1,0,-1
1615918656610734,-2,-1,-1,0,-1,0,-1,0
1615918656610734,0,1,0,-1,-3,-1,-2,0
1615918656632768,0,-1,-1,-1,-3,-2,-1,-1
1615918656632768,-2,0,-2,0,-2,-2,-1,-1
1615918656633746,0,-3,-1,-2,0,-1,-1,0
1615918656633746,-1,-1,-1,-1,0,-1,0,0
1615918656655753,-2,0,0,-1,-1,-1,-2,1
1615918656655753,-1,-1,-1,-2,-1,-1,-2,-1
1615918656655753,-1,0,-1,-1,0,1,1,-1
1615918656655753,-1,-2,-1,-1,0,1,-2,-1
1615918656670695,-2,-1,-2,0,-2,-1,-2,-1
1615918656670695,-1,0,-1,1,-1,0,-1,0
1615918656670695,-2,-2,1,1,-2,0,-1,-2
1615918656670695,0,-1,-1,-2,1,-1,-1,0
1615918656692719,-1,-2,0,-2,0,-1,-2,-1
1615918656692719,0,-1,-1,0,-3,-1,-2,-1
1615918656693719,0,0,-1,-1,-1,-1,0,0
1615918656693719,-2,-3,1,-2,-2,0,1,-3
1615918656714678,-2,0,0,-2,-2,-1,0,-3
1615918656714678,-1,0,0,-1,-1,-1,-2,-2
1615918656722705,3,-1,0,-1,-1,-2,-3,0
1615918656722705,0,-1,-1,0,0,0,0,-1
1615918656730688,1,-1,-4,-2,1,-2,-1,0
1615918656730688,-1,-1,-3,-1,-2,0,0,0
1615918656730688,-3,-1,-1,-1,1,-1,0,1
1615918656730688,0,-3,0,-2,1,0,0,-1
1615918656752681,-3,-3,-1,0,0,-1,0,-2
1615918656752681,0,-1,0,-4,-1,0,-2,0
1615918656753681,-2,-2,0,-2,-1,0,-2,-2
1615918656753681,0,-1,-3,2,-1,-2,0,0
1615918656775619,-1,1,-1,-2,-2,0,0,0
1615918656775619,-1,-1,-2,0,-2,-3,0,-3
1615918656775619,0,0,-1,1,-2,-1,-1,-1
1615918656775619,-1,-2,-2,-2,-2,-2,0,0
1615918656790831,1,-1,-3,0,-2,0,0,-1
1615918656790831,0,-1,0,0,0,0,1,-2
1615918656790831,-1,-1,-1,-2,0,-3,-1,-1
1615918656790831,0,-1,-1,0,-3,-1,-1,-1
1615918656812851,0,0,-1,0,-2,-1,0,0
1615918656812851,-2,-2,0,-1,-1,-1,0,-2
1615918656813844,-1,-1,-1,-2,0,0,0,-2
1615918656813844,-1,-1,-1,-2,-2,-1,-2,-1
1615918656835722,-1,-2,0,-1,1,-2,-1,-1
1615918656835722,-2,-1,0,1,-2,-1,-1,-1
1615918656835722,0,-2,-2,-2,-1,0,-1,-1
1615918656835722,-1,0,0,-1,-1,-1,-1,0
1615918656850686,0,-1,-1,-2,-1,-2,-1,-3
1615918656850686,0,0,0,-3,0,-1,-1,1
1615918656850686,0,0,-2,-2,-2,0,-3,1
1615918656850686,0,0,-1,0,-2,0,-1,-1
1615918656872616,-2,-2,-1,-2,-1,-1,-1,0
1615918656872616,-1,-1,-1,-2,0,-1,-1,0
1615918656873613,1,-1,-1,0,-2,-1,1,-1
1615918656873613,1,-1,-2,0,0,-1,-2,-1
1615918656895665,0,0,-1,1,0,-1,0,-1
1615918656895665,-2,-2,-2,-1,0,1,-1,-1
1615918656895665,-1,1,0,-1,-1,-3,-1,-1
1615918656895665,-1,0,0,-1,-1,-1,-2,1
1615918656910160,-1,-1,-1,-1,-1,-1,1,-3
1615918656910160,0,-2,-2,-2,-2,-1,-2,-3
1615918656911158,0,-1,-3,-1,0,1,0,1
1615918656911158,-3,0,-1,-1,0,-2,2,-3
1615918656932351,1,-1,0,-1,0,0,-3,0
1615918656932351,-1,0,-2,-2,0,0,-2,0
1615918656933348,-1,-3,-1,-1,-1,0,-1,-1
1615918656933348,0,1,-1,-3,0,0,-2,-1
1615918656955394,-1,-1,-2,1,-2,0,-1,-1
1615918656955394,1,-1,-1,-2,0,-2,-1,-1
1615918656956391,-1,-2,0,0,0,-2,-3,-1
1615918656956391,-2,-3,-1,-1,-1,-1,0,-2
1615918656978381,-1,-1,0,-1,-1,1,-3,0
1615918656978381,-1,-3,-2,-1,0,2,0,-1
1615918656979738,-2,-2,-1,-2,-2,0,-1,-2
1615918656979738,-2,-3,0,-1,0,-2,-1,-2
1615918657001058,1,-1,-1,-1,-2,-2,-2,-2
1615918657001058,0,0,0,-1,-1,-2,-2,-1
1615918657002055,1,-1,1,-1,0,-1,0,-1
1615918657002055,-1,-1,1,-1,-1,0,0,1
1615918657015020,-1,-1,-2,0,-1,-1,-2,1
1615918657015020,-2,0,-2,-1,-1,-1,-3,-1
1615918657016018,-1,0,-2,1,-2,-1,-1,-1
1615918657016018,0,0,-2,-3,-1,0,-1,-2
1615918657030055,-1,0,0,0,1,0,-3,-1
1615918657030055,1,-2,0,0,0,0,-1,-2
1615918657031026,-2,1,0,-1,-1,0,0,-1
1615918657031026,-1,-1,-1,-1,1,0,-1,-1
1615918657052603,-1,-1,0,-3,0,-2,-1,-1
1615918657052603,-2,0,0,-1,-1,-2,0,-1
1615918657053600,0,-2,-2,-1,-1,-2,-1,-1
1615918657053600,-2,-1,-1,-2,1,-2,-1,0
1615918657075192,-2,-1,-1,-1,0,0,0,0
1615918657075192,-1,0,2,-1,1,-1,-1,2
1615918657076198,-1,-2,1,-3,1,-1,-1,-2
1615918657076198,1,1,-1,-1,-2,0,-1,0
1615918657089974,-1,-2,-2,1,-2,-1,0,-2
1615918657089974,-1,0,-2,0,-1,-1,-1,-2
1615918657097955,-1,-2,-2,-1,-1,0,1,-3
1615918657097955,-2,-1,0,1,-1,1,-1,-1
1615918657112387,-2,0,1,-3,-2,-1,-1,-1
1615918657112387,-1,-2,-2,1,0,-1,1,-1
1615918657113408,-1,0,-1,-1,-1,-1,-3,-2
1615918657113408,-1,-1,-2,-3,-1,0,-1,-2
1615918657135818,0,-1,0,-1,-1,-1,0,-1
1615918657135818,-1,-1,-2,-3,-2,-1,-1,-2
1615918657135818,-1,-1,-1,2,0,-2,-2,-1
1615918657135818,0,-2,-1,-1,-2,-2,0,0
1615918657158923,-1,-2,-1,-2,-2,-1,0,-2
1615918657158923,0,-3,-1,0,-1,-2,-2,-1
1615918657158923,-1,-1,0,-1,-1,-2,-3,0
1615918657158923,-2,0,1,0,-2,-3,-3,0
1615918657172917,-2,-1,-2,-1,0,0,0,-1
1615918657172917,-1,-1,0,-1,-2,-2,0,0
1615918657173890,0,-1,-2,-2,-1,-1,-2,-1
1615918657173890,-1,0,-1,0,1,-2,-1,0
1615918657194914,0,-1,-2,-2,-2,-2,-1,-2
1615918657194914,-1,1,-1,-1,-1,0,-2,0
1615918657196908,-1,-1,-1,0,0,-1,0,0
1615918657196908,-2,-1,0,0,-1,-1,-1,-2
1615918657209901,-1,-2,-1,0,0,-1,0,0
1615918657209901,-2,-2,-1,-2,-1,0,-1,-3
1615918657217872,-3,-2,-1,-2,-2,0,2,-1
1615918657217872,-1,-1,-2,0,0,-2,0,-1
1615918657232926,-1,0,-1,1,0,-2,-1,-2
1615918657232926,0,-1,-2,-1,-2,-1,0,0
1615918657233883,1,-1,-3,-1,0,-1,-2,1
1615918657233883,1,-2,0,-1,-1,1,0,-1
1615918657256709,0,0,-1,-2,1,-3,-2,0
1615918657256709,-2,-1,-2,-1,0,1,0,0
1615918657257690,-1,-2,0,0,-2,-1,-1,-2
1615918657257690,-2,-3,-2,-2,-3,-1,-1,-1
1615918657278838,0,-1,0,-2,0,0,-2,-1
1615918657278838,-2,0,0,0,-1,0,0,-3
1615918657278838,-2,0,-2,-2,-1,-2,-1,-1
1615918657278838,-2,2,0,1,-1,-2,-2,-1
1615918657292697,-2,0,0,-3,-1,0,-1,0
1615918657292697,-1,-1,-1,-1,0,-2,-1,-2
1615918657293698,0,-2,-1,-2,-1,2,0,-2
1615918657293698,0,-2,-2,0,0,-1,-1,-3
1615918657315065,1,-2,-1,0,-1,0,-2,-1
1615918657315065,1,1,-1,0,-2,-2,-2,0
1615918657316039,-2,0,-1,-3,-1,0,-3,-1
1615918657316039,-1,-1,0,0,-2,0,0,1
1615918657329946,-2,-2,-1,0,-1,0,-2,-1
1615918657329946,0,-1,-2,-1,-1,-3,-1,-1
1615918657337957,1,-1,0,-2,-3,-1,-1,0
1615918657337957,-1,-1,-1,-2,0,-1,0,-1
1615918657352728,-2,-1,0,-2,-3,-1,-2,-2
1615918657352728,-1,-1,-2,-1,0,-1,-1,0
1615918657353753,-1,0,-1,0,-3,-1,0,-1
1615918657353753,-2,-1,-2,0,-2,0,-1,-2
1615918657376030,-1,0,-2,0,1,-1,0,0
1615918657376030,-2,-2,1,0,-1,-1,-1,-1
1615918657377031,-1,0,-2,-1,1,-3,-1,-1
1615918657377031,-1,-2,0,0,-1,-1,1,-1
1615918657399625,-1,-1,-1,0,-2,1,-2,1
1615918657399625,0,0,-1,-3,0,-1,-2,0
1615918657400409,-2,-1,0,-1,0,-1,-1,-2
1615918657400409,-2,-2,0,-4,1,-1,-1,-1
1615918657421432,0,-1,-3,-1,0,1,-1,-3
1615918657421432,0,-1,-2,0,-1,-2,-2,1
1615918657421432,1,-1,-1,-1,-2,-1,0,-1
1615918657421432,1,0,-1,-1,0,0,-3,-1
1615918657435372,-1,-1,-1,0,0,-3,0,-1
1615918657435372,-1,-1,-1,-1,-1,0,1,-3
1615918657436366,-2,0,-2,-2,-1,0,-3,-2
1615918657436366,-1,-1,-1,0,0,-1,-1,0
1615918657449331,0,-2,0,-1,-1,-2,-2,0
1615918657449331,-2,-4,-1,-1,0,-1,0,0
1615918657458305,0,-1,0,0,-1,-1,-1,-1
1615918657458305,-2,1,-2,0,-1,0,-1,-2
1615918657473278,-2,2,0,-2,-1,0,-1,-1
1615918657473278,-1,0,-1,1,-2,-1,-1,-1
1615918657473278,-3,-2,-2,-1,0,0,0,-1
1615918657473278,-1,-1,-1,-1,-1,-2,-2,-1
1615918657495706,-1,-2,0,-1,-1,-1,-1,0
1615918657495706,1,1,0,1,0,0,-1,-1
1615918657496704,0,-3,-2,0,0,-1,-1,-1
1615918657496704,1,0,-2,-1,-2,-1,0,0
1615918657509665,-1,0,-1,-2,0,-1,0,-2
1615918657509665,-1,-1,1,0,-2,0,-2,0
1615918657517643,1,0,1,0,-1,0,1,0
1615918657517643,-1,-1,-1,-2,-1,-1,-2,-1
1615918657533173,-2,-1,-2,0,-1,-1,-1,-2
1615918657533173,-1,-1,-2,-1,-2,1,0,0
1615918657533173,-1,0,-1,1,1,-2,-1,-1
1615918657533173,-2,-2,-1,-3,-2,-2,0,-2
1615918657555598,0,0,-1,-1,0,-1,0,0
1615918657555598,-2,-1,-1,-1,-1,1,-1,-1
1615918657556568,-1,-2,-1,-2,0,-1,-1,-1
1615918657556568,-1,-2,0,-1,0,-1,-2,0
1615918657570147,0,-1,0,-2,-2,-1,-1,-1
1615918657570147,-2,-1,0,-1,-3,-2,-1,-1
1615918657578327,1,0,-1,-3,-3,-1,-1,0
1615918657578327,-1,-1,0,0,-1,-1,0,-1
1615918657593232,0,-1,-3,-2,-1,0,1,0
1615918657593232,0,-3,0,-1,-1,-1,-1,0
1615918657593232,-1,-1,-1,-1,-1,-2,-2,-1
1615918657593232,0,0,-1,-1,0,-2,-1,-1
1615918657614888,-2,-1,-2,1,-2,-2,-1,-1
1615918657614888,-2,1,-1,0,1,0,-1,-3
1615918657615862,-2,0,0,-2,0,-1,0,-1
1615918657615862,-1,-1,-2,-1,-2,0,0,-1
1615918657629453,0,-1,0,-2,-3,-1,-1,0
1615918657629453,1,-3,-3,-2,0,0,-1,-1
1615918657638301,-2,-1,-2,0,-2,-1,0,0
1615918657638301,-2,-1,0,0,0,0,-1,-1
1615918657652696,-2,-1,1,0,0,-1,0,-2
1615918657652696,-1,-1,-1,-4,-3,-2,-1,0
1615918657653668,-1,-1,-2,-1,-2,0,-1,-1
1615918657653668,-1,-2,-2,-1,-1,0,0,0
1615918657675726,-1,-1,-1,0,-1,0,-1,-2
1615918657675726,0,0,-2,-2,-1,-1,2,-1
1615918657675726,-1,-2,1,-2,-2,0,-1,-3
1615918657675726,-1,-1,-1,-2,-1,-1,1,0
1615918657698086,0,-1,0,-1,-1,-1,-2,0
1615918657698086,-1,-2,-1,-2,-2,-1,-2,-2
1615918657699083,-1,-1,0,0,-1,2,-1,0
1615918657699083,0,-1,-2,0,-2,-2,-1,-1
1615918657713070,0,-2,-1,0,0,-1,-1,-1
1615918657713070,-1,0,-1,0,0,-1,-2,-1
1615918657714042,1,-2,0,1,0,-1,-2,0
1615918657714042,1,-1,-2,-1,-2,1,-1,-2
1615918657735824,-1,-1,-1,1,-1,-1,-1,-1
1615918657735824,0,-1,-2,-1,-1,0,-1,-1
1615918657735824,-3,0,-2,-1,-3,-2,-1,-1
1615918657735824,-3,-1,0,-1,1,-1,-1,0
1615918657758059,-1,-2,-1,-3,-2,-1,0,0
1615918657758059,0,1,0,-1,0,0,0,-1
1615918657759031,1,0,0,0,-1,-1,-2,-1
1615918657759031,-1,0,0,0,-3,-1,-1,-1
1615918657773018,-1,-1,-3,-1,-1,-1,-1,-2
1615918657773018,-3,-1,1,0,-1,-1,-1,-1
1615918657774015,-2,1,-2,-1,0,-1,-1,-1
1615918657774015,0,-1,-1,0,-3,0,-1,-1
1615918657795118,0,0,0,-2,-1,-2,-1,0
1615918657795118,-1,0,0,-1,1,0,0,-1
1615918657796083,-2,-1,-2,0,0,1,-2,-1
1615918657796083,0,-1,-1,0,0,-1,0,0
1615918657818041,-2,-1,0,0,-3,-1,-1,-1
1615918657818041,-1,-2,-2,0,0,0,-1,-2
1615918657819640,0,-1,-1,-2,-1,-2,0,-1
1615918657819640,1,-1,-1,0,1,-1,-1,0
1615918657832697,-1,0,1,-1,1,0,-1,-1
1615918657832697,-1,0,-1,-1,-1,-1,-1,-2
1615918657833696,1,-1,0,0,-1,-2,-1,-1
1615918657833696,-2,1,0,-2,-1,-1,-1,-1
1615918657855575,-1,-2,-2,0,-1,-1,0,0
1615918657855575,0,-2,-1,-1,2,-1,0,-2
1615918657856575,-2,-3,-1,2,-2,-1,1,-2
1615918657856575,-1,1,0,-2,0,0,1,-1
1615918657877314,0,1,0,0,1,0,-1,-1
1615918657877314,0,1,1,-1,-2,-1,-2,0
1615918657878311,-1,-1,0,-1,-1,-1,-1,-2
1615918657878311,0,-2,0,-1,0,0,0,-2
1615918657893295,-2,-2,0,-1,0,-1,0,0
1615918657893295,0,0,-1,-2,-1,-2,1,-1
1615918657894268,-2,0,0,-1,-1,-3,-2,1
1615918657894268,-1,0,-1,1,-2,-1,-2,-1
1615918657915453,0,0,-2,-1,0,-3,-1,-1
1615918657915453,0,1,0,0,-1,-2,-1,-1
1615918657916448,-2,-1,1,-1,1,0,0,-2
1615918657916448,0,-2,-1,-3,0,-2,-1,-2
1615918657937499,-1,0,-2,0,-3,-1,0,0
1615918657937499,-1,-1,-1,0,-3,0,-2,-1
1615918657938467,0,-1,1,-2,-3,-1,-1,-2
1615918657938467,-1,-1,-1,-1,-1,-2,-1,-1
1615918657952430,-1,-1,-2,-1,1,0,-1,-2
1615918657952430,-1,-1,0,-1,-2,-1,-2,0
1615918657953427,-1,-1,-2,-1,0,0,-2,0
1615918657953427,-1,-1,1,1,-1,0,0,0
1615918657975756,-1,2,2,0,-2,1,-1,-1
1615918657975756,-3,-2,-1,0,-1,0,-1,0
1615918657975756,-2,-1,-1,-1,0,-2,-1,0
1615918657975756,-1,-1,1,-1,-2,-2,-1,0
1615918657997733,-2,-1,-2,-2,-1,-1,-1,-1
1615918657997733,0,-1,0,-1,0,0,-2,-2
1615918657998707,0,0,-1,0,-1,0,-2,-1
1615918657998707,-2,-2,-1,0,-1,0,0,-2
1615918658012671,-1,-1,-1,0,-1,-2,-1,-2
1615918658012671,-1,-2,0,-1,1,-1,0,-2
1615918658013667,1,-1,-2,0,-1,-1,0,-1
1615918658013667,0,-1,-2,-3,-1,-1,-2,-1
1615918658035813,0,-2,0,0,0,0,-1,1
1615918658035813,-1,-2,0,0,-3,-1,-1,0
1615918658035813,1,-2,0,-1,-1,-2,0,-2
1615918658035813,1,-1,-3,-2,0,-1,0,-1
1615918658057902,-1,-1,-3,-3,0,-2,-1,-1
1615918658057902,-1,0,-2,0,0,0,-1,0
1615918658058626,-3,-1,-2,-2,1,1,0,1
1615918658058626,-1,0,-1,-1,-2,-1,-3,-1
1615918658072804,-1,-1,0,-1,-2,-1,0,-1
1615918658072804,-1,0,1,-1,-2,-4,-1,-1
1615918658073804,-1,-2,-3,-2,-1,-1,-1,0
1615918658073804,-1,0,-2,-1,-1,-2,-2,1
1615918658095791,0,-1,-1,-1,-1,1,-1,-2
1615918658095791,-1,0,-2,0,1,0,0,-1
1615918658096815,0,-1,0,0,1,-1,-1,-1
1615918658096815,-2,0,-2,-2,0,-1,-1,-1
1615918658117729,-1,0,0,-1,-1,-1,-1,1
1615918658117729,-2,-1,-1,0,0,-1,-3,1
1615918658119194,2,0,0,-1,-3,-1,-1,-1
1615918658119194,0,-2,-1,-1,0,-2,-2,-2
1615918658132641,1,-2,-3,0,0,-1,0,-1
1615918658132641,-1,-1,1,-2,0,-1,1,-1
1615918658133538,-1,-1,0,-2,-1,-1,1,-2
1615918658133538,-1,-2,1,-2,-2,-1,1,-1
1615918658155200,-1,0,-1,-2,-1,-1,-3,0
1615918658155200,0,-2,-2,1,0,-1,-1,-2
1615918658156199,-1,1,-1,-1,-1,-2,-1,-1
1615918658156199,-1,0,-3,1,0,-3,-2,0
1615918658178321,0,-1,-1,-2,-1,0,-2,-1
1615918658178321,-1,0,1,0,-1,-1,0,0
1615918658178321,-1,-2,0,-1,-1,0,0,0
1615918658178321,-2,-2,-1,-1,0,0,0,-1
1615918658192654,-1,-1,-1,-1,-2,-1,-2,-2
1615918658192654,1,-1,-1,1,0,-1,-1,-1
1615918658193652,0,0,-1,0,-1,-2,-2,-1
1615918658193652,0,-1,0,-1,0,-1,-1,-2
1615918658215824,0,-2,-1,-2,0,0,1,0
1615918658215824,0,0,-3,-3,-1,-1,-1,0
1615918658215824,-1,-1,-1,-2,-1,-1,-1,-1
1615918658215824,-1,1,-2,-1,0,-1,-2,-1
1615918658237788,-1,-2,0,0,2,-2,-1,-1
1615918658237788,-2,0,0,-1,-1,-2,-1,-1
1615918658238787,-3,-2,-1,-1,-1,-2,1,0
1615918658238787,-1,1,-1,0,-1,1,0,-2
1615918658251752,0,0,-1,0,-1,0,0,-1
1615918658251752,0,-1,0,0,-2,-2,-2,0
1615918658260528,0,-1,-1,-2,1,0,-2,-1
1615918658260528,0,-2,1,-1,-1,-2,1,0
1615918658275751,-2,-3,1,0,0,-1,0,-2
1615918658275751,0,0,-1,-3,-2,0,0,0
1615918658275751,-1,-1,-1,0,0,0,0,0
1615918658275751,0,0,0,-1,-1,-2,-1,0
1615918658297817,-1,0,-1,-1,-2,0,-1,0
1615918658297817,-2,-1,0,-4,0,1,0,-1
1615918658298788,-2,-2,0,-1,-2,-3,-1,-2
1615918658298788,0,0,-2,-1,-1,-1,-1,-2
1615918658312721,-1,-1,-1,0,-2,-2,0,-1
1615918658312721,-2,-1,-2,1,-1,-2,-1,-1
1615918658320935,-1,-1,-1,-2,-1,-1,-2,0
1615918658320935,0,-1,-3,2,-2,-1,0,0
1615918658343907,1,0,0,-1,-2,-2,-2,-1
1615918658343907,0,-1,-1,0,0,0,-1,-1
1615918658344811,0,-1,0,0,0,-1,1,-2
1615918658344811,-1,-2,1,-1,-1,-1,-1,-2
1615918658366505,-1,-1,-2,-1,-2,-1,-1,-2
1615918658366505,1,-1,-1,-1,1,-1,-2,-2
1615918658366505,-1,-1,-2,2,-1,-1,-1,0
1615918658366505,-1,-1,0,-2,-1,-1,-2,-2
1615918658371724,-1,-2,0,0,-1,-1,1,0
1615918658371724,-2,-2,-2,-1,0,-3,-1,-3
1615918658388341,-1,-1,-2,-2,0,0,-3,-1
1615918658388341,1,-2,-2,-1,0,1,-2,0
1615918658395701,-1,-1,-1,-1,0,0,0,-1
1615918658395701,-1,-2,0,0,-2,-3,0,1
1615918658395701,-1,0,-2,1,-2,1,-1,0
1615918658395701,-2,-1,-2,-2,-1,-1,-1,-2
1615918658417658,1,0,2,0,-2,-2,-2,-2
1615918658417658,-1,-1,-3,-2,-2,0,1,0
1615918658418657,-1,-1,0,-3,-2,-1,0,-1
1615918658418657,-2,-1,0,-1,-1,1,0,-1
1615918658431970,-1,0,-3,-1,0,0,1,-1
1615918658431970,0,-1,0,-2,0,-1,1,-1
1615918658439927,1,-1,2,0,-1,-1,-3,0
1615918658439927,1,-1,-2,-1,-2,-2,-1,0
1615918658455927,-1,1,-1,-1,-1,-1,-1,-1
1615918658455927,0,-1,-2,-1,-1,-1,-1,-1
1615918658455927,0,-1,0,1,0,-2,-1,-1
1615918658455927,0,-2,-1,-1,-1,-1,0,0
1615918658477917,-2,-1,-1,-2,-2,0,-2,0
1615918658477917,1,-2,0,0,-1,-1,-1,-1
1615918658479157,-1,-2,-1,-3,-1,-2,0,-2
1615918658479157,0,0,1,-2,0,-2,1,0
1615918658491722,-1,-2,1,-3,0,-1,-2,0
1615918658491722,-2,-1,-3,-1,1,0,0,-1
1615918658500674,1,0,-1,-1,-2,0,0,-2
1615918658500674,-1,-2,-1,-2,-1,-2,1,0
1615918658515634,-1,-2,-1,0,-1,-1,-2,-1
1615918658515634,-1,-1,1,-1,-2,-1,0,-1
1615918658516632,-1,-1,-1,0,-1,-1,-1,-1
1615918658516632,-1,-1,-2,-1,0,-1,-2,-2
1615918658538210,-2,-3,-1,-1,0,0,0,-1
1615918658538210,-2,1,-2,-1,-2,-3,-1,0
1615918658538210,-1,-1,-1,-1,-1,-2,-1,-1
1615918658538210,0,0,-1,1,-1,-1,-1,-1
1615918658552519,-1,-2,-2,-1,1,1,-1,1
1615918658552519,-1,-1,0,-1,-2,-4,-2,-1
1615918658560182,0,-1,-1,-1,-1,0,-1,-2
1615918658560182,-1,-2,-1,0,-1,0,0,0
1615918658575844,1,0,0,-2,1,-1,-1,-3
1615918658575844,-1,-2,0,0,-2,0,-1,0
1615918658575844,-1,0,0,-1,-1,-1,-2,-1
1615918658575844,-1,0,0,-1,-2,-1,-1,0
1615918658597657,1,0,-2,-1,0,-1,0,0
1615918658597657,0,-2,-1,0,1,1,0,0
1615918658598655,-2,0,-1,-2,-1,-2,-1,-2
1615918658598655,-1,-2,-1,0,0,1,-1,-1
1615918658621560,-2,-3,-1,-1,-2,-2,-1,1
1615918658621560,-1,-3,-2,-3,-1,1,-2,-1
1615918658621560,-1,-1,-2,1,-1,1,0,1
1615918658621560,-2,1,-1,-3,1,-1,-2,-1
1615918658635526,-1,-1,-1,-2,-1,-1,1,-1
1615918658635526,-1,-2,-1,-2,0,0,-1,-2
1615918658636526,0,1,-1,-2,0,-1,0,-1
1615918658636526,0,-1,-2,0,1,0,0,-2
1615918658666426,0,1,-1,-1,0,0,0,-1
1615918658666426,-1,0,-3,0,-2,0,0,-1
1615918658666426,0,-3,-1,-2,-1,-1,-2,0
1615918658666426,-1,-2,-1,-2,-1,-1,-2,0
1615918658681589,-1,1,0,1,-2,0,-1,-1
1615918658681589,0,-3,-2,-3,-1,-2,-1,0
1615918658681589,-2,-2,-1,1,-1,0,0,-1
1615918658681589,-1,-1,-1,0,-1,-1,-1,0
1615918658695371,-2,-1,-1,0,-1,-2,-1,-1
1615918658695371,0,-2,-3,-2,-2,-1,-1,-1
1615918658696367,-2,-1,-2,-1,-2,0,-1,-2
1615918658696367,0,-1,-2,-2,-3,-2,0,0
1615918658717472,0,0,-1,-2,-1,0,-1,-2
1615918658717472,-2,0,-2,1,-2,-1,-1,-3
1615918658718472,0,0,-1,-2,-1,-1,0,0
1615918658718472,-2,1,0,-2,0,0,-1,-2
1615918658740632,-1,-2,-2,0,-1,-3,-1,-1
1615918658740632,0,-1,1,-3,0,-1,-1,-2
1615918658741629,0,-1,-1,-2,0,-1,-2,0
1615918658741629,0,-1,0,0,-1,0,0,-2
1615918658755778,0,-2,0,-1,-3,0,-2,1
1615918658755778,-3,0,1,0,-1,-1,0,0
1615918658755778,-1,0,-1,0,-1,0,-1,-1
1615918658755778,0,0,-1,-1,-2,-2,0,-2
1615918658778075,-2,-1,-3,-3,1,-1,0,0
1615918658778075,-1,-1,-1,0,-2,-1,1,-1
1615918658779062,-1,-1,0,-2,0,-1,0,-1
1615918658779062,0,-1,-2,-1,0,1,0,-1
1615918658800625,1,-1,-1,-1,-1,-2,-2,-2
1615918658800625,-1,-1,-2,0,0,0,-1,-1
1615918658801599,-1,-1,-2,-1,-1,-2,-1,-1
1615918658801599,0,-2,0,0,0,-1,-1,-1
1615918658815577,-1,-1,0,1,-2,-2,0,-1
1615918658815577,-1,1,1,0,0,-2,-1,0
1615918658816573,0,-2,-1,0,-2,0,0,-2
1615918658816573,-2,-2,0,0,-2,-1,0,0
1615918658837786,-1,-3,0,-2,-1,0,-1,-1
1615918658837786,0,1,0,-3,-1,-1,-1,-1
1615918658838783,0,1,0,0,-2,-1,-1,-1
1615918658838783,-2,0,-1,-1,0,-1,-1,-2
1615918658860572,-1,-2,-2,-1,-1,0,0,-2
1615918658860572,0,-1,-1,-1,-1,-2,-2,-3
1615918658861570,0,-1,-2,-2,1,1,-1,0
1615918658861570,0,-2,-2,-1,-1,0,-2,1
1615918658875289,0,-1,0,0,-1,0,-2,-1
1615918658875289,2,-1,0,-1,0,-1,-2,-1
1615918658876290,-2,0,-1,-1,0,-2,0,-1
1615918658876290,-1,-2,-2,-1,-2,-1,-1,0
1615918658897736,-1,0,-2,-1,-2,-1,1,-1
1615918658897736,-2,-2,-1,-1,-1,-2,0,0
1615918658898727,0,0,-2,0,0,-1,-1,-1
1615918658898727,1,-1,-2,-3,-1,-1,-1,-2
1615918658920695,0,-1,-2,1,-2,-2,-1,-2
1615918658920695,1,0,-2,1,-2,0,1,-1
1615918658921668,-1,-1,0,0,-1,-1,0,0
1615918658921668,-3,0,-1,-1,-1,-1,0,-1
1615918658943035,0,-2,0,-2,-2,0,-1,-1
1615918658943035,0,-2,-3,-2,-1,0,-1,-1
1615918658944032,0,-2,-1,-2,-1,-1,-2,-4
1615918658944032,-1,0,-1,-1,-1,-1,-1,0
1615918658958205,-1,1,0,1,0,-1,-2,-1
1615918658958205,-3,0,0,-2,-1,1,0,-1
1615918658958205,-1,-2,-2,1,-3,-2,0,0
1615918658958205,0,1,1,-2,-2,-1,0,-2
1615918658981203,0,1,0,-1,0,-1,-1,1
1615918658981203,-2,-1,-1,0,-2,-1,-1,1
1615918658982199,-1,-2,-2,-1,-1,-2,0,0
1615918658982199,0,-1,-2,-1,-3,0,0,0
1615918658995250,-3,-1,-1,-1,-1,-1,1,-1
1615918658995250,0,-1,-1,-1,0,-1,0,-2
1615918658996247,-1,-2,0,-2,-1,-2,1,0
1615918658996247,0,-1,-1,0,0,0,-2,0
1615918659018203,0,0,-2,0,0,-2,-1,0
1615918659018203,-2,-1,-2,-2,-1,-1,-1,-1
1615918659018203,0,-2,-1,-2,-1,1,-3,-1
1615918659018203,-2,-2,0,0,0,-3,0,-2
1615918659041342,-1,-2,-1,-2,-1,0,-1,-1
1615918659041342,-1,-2,0,0,-2,0,-1,-1
1615918659042330,0,0,-1,0,-1,-2,-2,-1
1615918659042330,-1,0,-1,-1,-2,-1,-1,-1
1615918659063288,-1,-1,-1,0,-3,-1,-2,-1
1615918659063288,-1,-2,0,-2,-2,-1,-2,-1
1615918659064285,-1,-2,-3,0,0,-1,0,-2
1615918659064285,-1,-2,-3,-2,-2,-2,-1,-1
1615918659078334,-3,-1,-3,0,1,-1,0,-1
1615918659078334,-1,0,-1,0,-2,-3,0,2
1615918659078334,-1,-1,0,-1,-1,-1,-1,1
1615918659078334,0,-2,0,-2,-2,-1,-1,-2
1615918659101466,1,-1,0,-1,-1,-2,0,1
1615918659101466,-1,0,0,-2,0,1,1,-1
1615918659101466,-2,-1,1,-1,-2,-1,0,-1
1615918659101466,-1,-3,0,-1,-1,-1,-1,0
1615918659123745,-1,-1,1,-2,0,0,0,-1
1615918659123745,-1,-1,-1,0,0,0,1,0
1615918659124717,0,0,-2,-1,-1,0,-2,-1
1615918659124717,-1,0,-1,-2,1,0,-1,-1
1615918659137466,1,-2,-3,0,1,-2,0,0
1615918659137466,-1,-1,-1,-2,0,-2,-2,-2
1615918659138438,-1,0,-2,0,-2,-3,-2,-1
1615918659138438,0,-1,0,-1,-1,-1,2,-1
1615918659160722,-1,-1,-1,-3,-2,0,0,-2
1615918659160722,-1,-2,-1,-1,-2,-1,0,-1
1615918659161715,0,-2,0,-2,-1,-1,2,-1
1615918659161715,-1,0,0,1,-1,-1,-1,0
1615918659175831,1,1,0,0,-3,-1,-3,0
1615918659175831,-1,-1,-1,0,-1,-1,0,-2
1615918659175831,0,-1,-1,-1,-2,-2,-1,-1
1615918659175831,-1,0,0,-1,-1,0,0,0
1615918659197977,0,-1,-2,-2,-1,1,1,-1
1615918659197977,0,-1,-1,-1,-1,-2,0,-1
1615918659198953,0,0,-2,-1,0,-1,-1,-1
1615918659198953,-1,-1,-4,-1,0,1,-2,-2
1615918659221174,-2,-1,1,-1,-1,-1,-1,-1
1615918659221174,-1,1,-1,-2,-1,-1,-1,0
1615918659221174,0,-1,-1,-2,-2,-1,0,0
1615918659221174,-1,-1,-3,-1,0,0,-1,-1
1615918659235330,0,-2,-1,-2,0,0,-2,-1
1615918659235330,1,-2,-3,0,-1,0,0,-1
1615918659236330,-1,1,0,0,0,1,0,-1
1615918659236330,-1,0,0,0,-2,-1,-1,-1
1615918659258277,0,-2,-3,-1,0,0,0,0
1615918659258277,0,0,0,-1,-2,-3,0,0
1615918659258680,0,-2,0,-1,-2,0,0,0
1615918659258680,0,-2,-1,-1,0,0,-2,0
1615918659280835,-2,0,0,-2,-1,-1,-1,-2
1615918659280835,0,-1,-1,-1,1,-2,-2,-3
1615918659280835,-3,-1,-2,-3,0,-1,0,-2
1615918659280835,-1,-1,-1,-1,-2,0,-1,0
1615918659294677,-1,0,0,0,-2,0,0,-2
1615918659294677,-2,-1,-1,-2,-1,-1,-1,-1
1615918659302654,-1,-2,0,0,-2,-1,-1,-1
1615918659302654,0,-1,-2,0,-1,-2,-1,0
1615918659317611,0,0,1,1,-2,-1,0,0
1615918659317611,-1,0,-1,0,1,2,0,0
1615918659318608,-1,-2,-1,0,0,0,-2,-1
1615918659318608,0,-1,0,-3,1,-1,0,0
1615918659342270,-1,-1,0,0,-2,-1,-1,0
1615918659342270,-1,-1,0,0,-2,-3,-3,0
1615918659342270,-1,-1,-1,-1,0,0,-2,-1
1615918659342270,1,-3,0,-2,0,-2,0,-1
1615918659363208,-1,-1,-3,-2,-1,-3,-1,-1
1615918659363208,-1,0,-1,-1,-2,0,0,-1
1615918659364205,-1,0,0,0,-2,0,-1,0
1615918659364205,0,0,-1,-1,0,0,-1,-3
1615918659386614,0,-2,0,-1,0,0,-1,0
1615918659386614,-1,-2,-3,-1,-1,-2,-2,-1
1615918659386614,-1,0,0,-1,-1,-2,0,1
1615918659386614,-2,0,-1,0,-3,0,-1,0
1615918659408702,-1,-1,0,0,0,0,-1,-1
1615918659408702,-2,-2,-2,0,0,-1,1,0
1615918659409681,-2,1,0,-1,-2,0,0,0
1615918659409681,-2,-1,-1,-1,0,-1,0,0
1615918659414666,0,1,-1,-3,-3,-1,1,-2
1615918659414666,-1,-1,-1,-2,-2,-1,0,0
1615918659422725,1,-2,-2,-1,0,-2,-2,-1
1615918659422725,1,0,-2,0,-2,-3,-1,-2
1615918659437862,1,-2,-1,-1,1,-1,-2,-2
1615918659437862,1,-3,1,-1,-2,-1,-3,-1
1615918659438683,0,-1,-1,-1,-3,-1,0,-2
1615918659438683,-1,-2,-1,-2,-1,-1,-1,-2
1615918659460628,-1,0,0,-1,-3,0,-1,-2
1615918659460628,1,-2,1,0,0,0,0,-1
1615918659461626,-1,0,-2,-1,0,-1,0,0
1615918659461626,-1,-1,0,-1,-1,-1,-1,-1
1615918659475229,-2,-3,-3,-1,1,-1,-2,0
1615918659475229,-2,0,0,0,-1,0,-1,-2
1615918659483217,0,0,1,-1,-2,-1,-2,0
1615918659483217,0,0,1,-3,-1,1,-1,-1
1615918659497717,-1,0,1,0,-2,-1,0,0
1615918659497717,-1,-1,0,-1,-1,-1,0,1
1615918659498715,-1,-2,0,0,1,0,-1,0
1615918659498715,-2,0,-1,0,-2,-1,-1,0
1615918659520653,-1,0,-1,0,0,-2,-1,-1
1615918659520653,0,2,0,-2,0,-2,-1,0
1615918659521652,-2,0,-2,-1,-1,-2,0,-2
1615918659521652,-2,2,-1,0,1,-1,1,-1
1615918659534616,0,0,-1,0,0,-1,0,0
1615918659534616,0,0,-1,-2,-1,-1,-2,-1
1615918659542776,-1,-1,-2,-2,0,-3,-2,-2
1615918659542776,-1,-1,-1,-1,-1,0,-2,0
1615918659557626,-1,-1,-2,-3,-2,-1,-1,-1
1615918659557626,-2,-1,0,1,1,-1,-1,-2
1615918659558624,0,-4,0,-2,-1,-1,0,-1
1615918659558624,0,0,1,-2,-2,-1,-1,-1
1615918659580620,-1,-1,0,-2,-1,1,-1,-1
1615918659580620,-2,-1,-4,-2,-3,-3,-1,-1
1615918659581618,-1,1,0,-2,-2,0,-2,-1
1615918659581618,-1,-1,0,-1,-2,-1,0,-2
1615918659611635,-1,-1,-2,2,0,0,1,-2
1615918659611635,0,-1,-1,-2,0,1,-2,-3
1615918659611635,0,0,-1,-2,-1,-1,-1,0
1615918659611635,-2,-2,-3,1,-1,-1,0,-1
1615918659617618,0,0,-1,-1,-1,-2,0,0
1615918659617618,-1,-1,-1,-3,0,0,-2,2
1615918659618614,-1,0,-2,-1,-1,0,-1,-2
1615918659618614,-2,-1,-2,0,0,-2,-2,-3
1615918659640776,-1,0,0,-3,-1,-2,-1,-2
1615918659640776,0,-3,-1,-1,-1,0,-1,-1
1615918659640776,-1,-1,-1,-2,0,-1,0,-1
1615918659640776,-2,1,-2,0,-1,0,0,0
1615918659663717,-2,0,0,1,0,0,-2,0
1615918659663717,-1,-2,-1,-1,-2,0,-1,0
1615918659664714,1,0,0,1,0,-1,0,1
1615918659664714,-1,-2,-1,0,-1,0,-1,-3
1615918659677711,0,0,0,-1,-1,-1,-3,-1
1615918659677711,-1,1,2,-1,-1,-2,0,-1
1615918659679242,0,-1,-2,1,1,0,0,-3
1615918659679242,1,-1,0,-1,-1,-1,-2,0
1615918659700882,0,-2,0,-1,-2,0,0,1
1615918659700882,-2,0,-1,-1,-1,-1,-1,-1
1615918659700882,0,-2,-2,-1,0,0,-1,0
1615918659700882,1,-1,1,-2,-1,-2,-2,0
1615918659723518,-2,-3,-2,-2,-2,-1,-2,-2
1615918659723518,0,1,-1,0,-2,-1,0,-2
1615918659724515,-1,-1,0,-1,-2,-3,0,0
1615918659724515,-1,-2,-2,0,1,-2,0,0
1615918659737507,0,-1,-1,-1,-1,0,-2,-1
1615918659737507,-1,0,-1,-1,0,-1,-1,-1
1615918659738478,-2,0,-2,-1,-1,0,-2,-3
1615918659738478,0,-1,-2,0,-2,-1,-1,-2
1615918659759983,-1,-2,-1,-2,0,-2,1,-1
1615918659759983,-1,0,0,-1,1,0,0,0
1615918659760960,-1,-2,1,-1,0,-1,-2,0
1615918659760960,0,-1,-2,-1,-1,0,1,0
1615918659783696,0,0,-1,0,0,-2,-1,-1
1615918659783696,-1,-1,-2,0,-2,-3,0,-2
1615918659784860,-2,0,0,-2,-2,-2,-1,-1
1615918659784860,-1,-1,2,0,-1,0,-2,-1
1615918659797695,0,-1,-2,-2,2,0,-1,-1
1615918659797695,0,-2,-1,-2,-1,-1,-1,-1
1615918659798693,-2,1,-1,-2,-1,-2,-1,-1
1615918659798693,0,-2,-2,-1,-1,-1,-1,0
1615918659820633,-2,-1,0,1,-3,0,0,-2
1615918659820633,-1,-2,-2,0,0,0,-1,-2
1615918659821630,-3,-1,-3,-3,-1,-1,-1,-1
1615918659821630,-1,0,0,-1,-1,-2,-2,-1
1615918659843734,-1,-1,-1,-3,-1,-1,-1,1
1615918659843734,-1,-1,-1,3,0,-1,-1,0
1615918659844731,-1,-1,-1,-1,-1,0,-1,-1
1615918659844731,0,-1,0,-1,-1,0,0,0
1615918659857719,0,1,-1,-1,-1,-3,-1,-2
1615918659857719,-3,-1,-2,-1,-1,-1,0,-2
1615918659858692,-1,-1,-1,-1,-1,-1,-2,0
1615918659858692,-2,-3,-1,-2,-2,-1,0,0
1615918659880679,0,0,-1,-1,-3,0,-1,-2
1615918659880679,1,-2,-2,-2,-1,-1,0,-1
1615918659881677,-1,-2,0,-2,-2,0,-1,-2
1615918659881677,-1,0,0,-1,1,0,-2,0
1615918659903658,-1,-2,-1,0,0,0,-1,0
1615918659903658,-2,0,-2,0,0,0,-1,-2
1615918659904652,0,-1,-1,-1,-2,0,0,-1
1615918659904652,-1,-2,-2,-1,-1,-1,0,1
1615918659917685,-1,-2,-1,-1,-1,-2,-1,-2
1615918659917685,-1,1,-1,0,-1,0,-1,1
1615918659918613,0,0,-2,-2,-2,-1,-2,-2
1615918659918613,1,-2,-1,0,-1,-1,0,-3
1615918659940366,-1,-1,0,-1,-2,-1,0,1
1615918659940366,0,-1,0,-2,0,0,1,-1
1615918659941363,-1,-2,0,0,-1,-4,0,-1
1615918659941363,0,-1,-2,0,1,1,-1,-1
1615918659963304,-3,-2,-1,-2,1,0,-1,0
1615918659963304,-1,-2,0,0,-1,-2,-2,-1
1615918659964302,-1,0,-1,-1,-1,0,2,-1
1615918659964302,0,0,-1,-3,-3,-2,0,-1
1615918659977622,-1,0,-1,-1,0,-2,-1,-1
1615918659977622,0,-1,-2,0,-2,0,-3,-1
1615918659978621,-1,-1,-2,0,-1,-1,1,-1
1615918659978621,-3,-2,-1,-1,-1,2,-1,-2
1615918660000647,0,0,-1,-1,-1,-1,-1,0
1615918660000647,0,-1,-1,-3,-1,0,-1,1
1615918660001659,-2,-1,0,1,-2,1,-2,1
1615918660001659,-1,0,0,2,1,-1,0,-2
1615918660031619,-1,-2,-2,-1,0,-1,0,-2
1615918660031619,0,-1,1,-1,0,-2,0,-2
1615918660031619,0,0,-3,-1,-2,-1,-2,1
1615918660031619,-1,-1,-2,-2,0,-1,-1,-1
1615918660037675,-1,0,-1,0,0,0,-2,-2
1615918660037675,-1,-3,-2,-2,-1,-2,-2,0
1615918660038603,1,0,-1,0,0,-2,-2,-2
1615918660038603,0,0,0,-1,-3,-3,1,1
1615918660060643,0,-1,-1,0,0,0,-1,-2
1615918660060643,-3,-1,-2,1,0,-2,-1,-2
1615918660061641,-1,-1,-1,-1,0,-1,-2,-2
1615918660061641,0,0,-1,0,-1,-1,-2,-1
1615918660083890,1,-1,1,-2,-2,-2,-2,-1
1615918660083890,-2,-1,-2,0,1,-1,-1,-1
1615918660084888,-1,-1,0,0,-2,-1,-1,-3
1615918660084888,-1,-2,-3,-2,0,-1,-1,-1
1615918660097763,0,1,-2,0,-1,-1,-2,-1
1615918660097763,0,-1,-1,-1,-1,1,-2,-3
1615918660098760,0,-1,0,-2,-2,0,-1,0
1615918660098760,0,-2,-1,-1,0,-1,-1,-1
1615918660120973,-2,-1,-1,-1,0,1,0,0
1615918660120973,-2,-2,-2,-1,-1,-1,1,1
1615918660120973,0,0,-2,0,0,0,-1,-1
1615918660120973,-2,0,-1,-3,0,-2,-2,-2
1615918660143794,1,-1,-2,-3,0,0,0,1
1615918660143794,-2,-2,1,0,-1,-1,0,-1
1615918660144792,0,-2,0,-2,-2,-3,-2,-1
1615918660144792,-1,-1,-1,0,-2,-1,-2,-1
1615918660157757,-1,-1,-2,-1,-1,-1,0,-3
1615918660157757,1,1,1,-2,-1,-1,-1,-1
1615918660159003,0,-2,-1,0,0,-1,0,-1
1615918660159003,-1,-1,0,-2,-2,-1,-1,-1
1615918660180677,-1,-2,1,0,0,-1,0,-1
1615918660180677,-1,-3,-2,-1,-3,-1,-2,0
1615918660181674,0,-1,-1,-1,-2,-1,2,-1
1615918660181674,-2,-1,1,0,-1,-2,-1,-2
1615918660202721,0,-1,0,-2,0,0,-1,-1
1615918660202721,-2,1,0,1,-1,0,-1,-1
1615918660210703,-2,0,-1,-2,-1,0,0,0
1615918660210703,-1,-2,-2,-2,-2,-1,0,-1
1615918660217724,-1,-1,0,-1,-1,-3,0,0
1615918660217724,-1,0,1,-1,-1,-1,-2,-1
1615918660225856,-1,-1,-2,-1,-1,-1,1,0
1615918660225856,-1,0,0,-1,-1,-1,0,0
1615918660240804,-1,-1,-3,1,-2,-1,-2,-1
1615918660240804,0,-1,-2,-2,-2,-1,-1,-1
1615918660241767,0,0,-1,-1,-1,-1,-1,-1
1615918660241767,0,-1,-1,-1,-1,-1,0,-1
1615918660263732,-1,-1,-2,-1,-3,-2,0,0
1615918660263732,-1,-1,-2,-1,0,-1,2,0
1615918660264703,-2,-2,-3,-2,-2,-2,-2,-3
1615918660264703,-1,-2,0,-2,0,-1,-1,0
1615918660277695,-1,-3,0,0,-2,1,0,-1
1615918660277695,-1,-2,0,-2,-1,-1,-1,-1
1615918660285691,0,-2,0,-1,0,-1,-1,2
1615918660285691,1,1,0,0,0,0,0,-2
1615918660299808,-2,0,0,-2,1,0,0,0
1615918660299808,-1,0,-1,-1,0,0,-2,-1
1615918660308485,-1,-1,0,-2,-1,-1,-1,-2
1615918660308485,-1,-3,-1,0,-3,0,-1,0
1615918660322794,-1,1,-2,0,-1,0,-2,0
1615918660322794,-1,-1,-1,-2,-2,-1,0,-1
1615918660330881,-1,1,0,-1,1,-2,-1,-2
1615918660330881,-1,1,-1,0,-1,-1,-1,-2
1615918660337778,-2,-2,0,-1,-1,-1,-1,-2
1615918660337778,0,-2,-1,-2,0,-1,-1,0
1615918660345715,-1,-1,-1,0,-1,-1,-1,0
1615918660345715,-1,-1,0,0,1,-1,-2,-2
1615918660360698,-1,-1,0,-1,1,-1,-1,-2
1615918660360698,0,-1,-1,-2,-2,-1,0,-1
1615918660361699,-2,-2,0,1,0,-2,-1,-2
1615918660361699,0,-2,-4,0,-3,-1,0,0
1615918660383880,1,-1,0,-1,-2,-2,0,-1
1615918660383880,-1,-2,0,1,0,0,0,-1
1615918660384938,-2,-1,-2,0,-1,1,-1,0
1615918660384938,-1,-1,-1,-1,-1,0,-2,0
1615918660396763,1,-1,-1,-1,-3,0,0,1
1615918660396763,-3,0,-2,-1,-1,-2,-1,-1
1615918660405949,0,-2,-1,0,-2,0,-1,-1
1615918660405949,-1,0,-1,-2,-1,-2,0,-1
1615918660428134,0,0,-1,-1,-1,-2,-2,0
1615918660428134,0,-1,-1,-1,0,-1,-2,-1
1615918660429131,-2,-2,-1,-2,1,2,-1,0
1615918660429131,-3,-1,-2,-1,0,-2,-1,0
1615918660443531,-1,-1,-1,-2,-1,1,0,-1
1615918660443531,-1,0,-2,-2,-1,-2,-1,-1
1615918660444529,1,1,0,-1,0,-1,-1,-1
1615918660444529,0,-3,0,-1,-1,-1,0,-1
1615918660457763,-3,-2,-1,0,-1,-1,-2,-1
1615918660457763,-1,-2,-2,-1,-1,0,-1,0
1615918660465645,-1,0,0,-1,0,-1,0,-1
1615918660465645,-1,0,-1,-1,0,-1,-1,0
1615918660480976,0,0,-1,-1,-2,-2,0,-2
1615918660480976,-1,1,0,-1,-1,0,0,-2
1615918660480976,-2,-2,-1,-1,-1,-2,-2,1
1615918660480976,0,-1,-1,-1,-1,-1,-1,0
1615918660502798,-1,-3,0,0,-1,1,-1,-1
1615918660502798,-1,0,0,2,-2,1,-1,-1
1615918660503797,-1,-1,-1,-1,-2,-1,-3,-1
1615918660503797,-1,1,-1,0,1,-1,-2,-1
1615918660518709,-1,-1,-3,-2,-2,-2,-2,0
1615918660518709,0,-1,-3,-2,-3,0,0,-1
1615918660526034,-2,-1,-1,1,-1,1,0,0
1615918660526034,0,-1,0,0,-1,0,1,-1
1615918660540966,1,1,0,-1,-1,-1,-2,-3
1615918660540966,-1,-2,-2,-2,0,-2,-1,0
1615918660540966,-1,-1,-2,-2,-1,-2,-1,0
1615918660540966,-1,-1,-1,-2,-1,-1,0,-2
1615918660562684,0,0,-2,-1,0,1,0,0
1615918660562684,2,-1,0,-4,-1,-1,1,-2
1615918660563681,0,-2,-2,-1,0,-2,-1,-1
1615918660563681,-1,-2,-1,-1,-1,1,-1,2
1615918660587111,-3,0,-1,-1,-1,-2,-1,-1
1615918660587111,-2,-1,-1,0,0,-1,-2,-2
1615918660587111,0,-1,1,-1,0,-2,0,0
1615918660587111,0,0,0,-1,-1,1,0,-2
1615918660600856,0,0,-1,0,-1,-2,0,-1
1615918660600856,-1,-1,0,0,1,0,-2,-1
1615918660600856,0,-1,-2,-1,-1,1,-1,-2
1615918660600856,-1,-1,0,0,-1,0,-1,-1
1615918660622726,0,-1,-2,-1,-2,-2,-1,1
1615918660622726,-3,0,-1,-2,-2,0,1,-1
1615918660623733,0,-1,1,0,-1,-1,0,-1
1615918660623733,-2,-1,-1,-1,0,0,-1,1
1615918660646769,-1,0,-1,0,-1,-1,-1,0
1615918660646769,-2,-3,-1,-2,-1,0,-2,1
1615918660647737,-2,0,0,1,-1,-1,-3,-2
1615918660647737,-1,0,0,-2,-1,0,-2,-1
1615918660660697,-1,-2,0,-1,0,-1,-1,-2
1615918660660697,-1,-1,-1,-1,-2,-2,-2,-1
1615918660661695,-1,-2,-1,1,2,1,-1,-2
1615918660661695,1,-1,-1,0,-1,-1,0,0
