timestamp,emg1,emg2,emg3,emg4,emg5,emg6,emg7,emg8
1615918617743057,1,-1,-3,-2,-2,-1,-1,-1
1615918617743057,-2,0,-2,0,-2,-1,-1,0
1615918617752033,0,-2,2,-3,1,-2,0,-1
1615918617752033,-1,-1,-2,0,-1,-1,-1,0
1615918617766992,1,-1,0,1,0,0,-2,-1
1615918617766992,0,-2,-2,-1,-2,-1,0,-1
1615918617768987,-1,-2,-1,1,-1,-1,1,0
1615918617768987,0,-2,-1,-3,-1,-3,-1,1
1615918617788934,-1,0,1,-2,-2,-2,1,-2
1615918617788934,-2,-2,0,-1,-2,0,-1,-2
1615918617791926,-2,0,-2,0,-1,-1,-2,0
1615918617791926,-2,-1,-1,-2,1,0,-1,-1
1615918617811872,-2,0,0,1,-1,-1,-1,-1
1615918617811872,0,-1,0,-2,-1,-3,-2,0
1615918617813867,-1,-2,-1,1,-2,-2,-1,-2
1615918617813867,-1,-1,-1,1,0,0,1,0
1615918617827003,0,-1,-1,1,-1,0,-2,-1
1615918617827003,-2,-2,0,-2,-2,-1,0,-2
1615918617828999,0,-1,-2,-1,-2,-2,-1,-1
1615918617828999,-1,0,0,0,0,-1,-1,0
1615918617849475,-3,0,0,1,0,-3,-1,-1
1615918617849475,-1,-2,-1,-2,-1,-1,-2,0
1615918617851470,-1,0,-2,0,0,0,-1,-1
1615918617851470,-2,0,0,-1,0,-2,-1,-1
1615918617872413,2,-1,-1,-2,0,-2,0,0
1615918617872413,0,-1,-1,-3,-1,-3,-1,-1
1615918617874432,-1,-1,0,0,-2,-1,0,-1
1615918617874432,0,-1,-2,0,-1,0,-1,-1
1615918617887374,-2,0,-1,-1,-3,0,0,1
1615918617887374,1,0,-1,-2,0,-2,-1,-1
1615918617889368,-1,-1,0,-2,0,-1,0,-1
1615918617889368,-1,-1,0,1,-1,-2,-1,-1
1615918617909803,-1,-3,0,-3,0,-2,-1,-1
1615918617909803,0,0,0,-3,-1,-1,-1,-1
1615918617910802,-2,1,-2,-1,0,-1,0,-1
1615918617910802,-2,-2,-2,3,-2,0,1,0
1615918617931524,0,1,-1,0,-1,-1,1,0
1615918617931524,-2,-1,-1,2,-1,1,-1,-1
1615918617933519,0,-1,-2,-2,-2,-2,-2,0
1615918617933519,-1,-2,-2,-3,-1,0,-1,-2
1615918617946484,-3,0,-3,-2,0,0,-2,0
1615918617946484,0,-2,-2,0,-2,-1,0,-1
1615918617953466,-1,-2,0,0,-2,-1,0,0
1615918617953466,-1,-1,0,-3,-1,-1,-1,-1
1615918617969405,0,-3,0,-1,0,-2,-2,0
1615918617969405,-1,1,-1,-1,-2,-1,-2,0
1615918617971400,-2,-1,-1,-2,1,-1,0,0
1615918617971400,-1,1,-1,-1,-1,-1,-2,-1
1615918617992367,-1,-1,0,-3,-1,-1,-1,-1
1615918617992367,-2,-2,1,0,0,0,0,-1
1615918617994338,0,-1,-1,0,-1,1,1,-2
1615918617994338,1,-1,0,-2,0,2,0,0
1615918618006307,-1,-1,0,1,-1,-1,-1,-2
1615918618006307,-1,-2,0,-2,0,-2,0,0
1615918618013312,-1,-2,-2,-2,-1,-1,-2,-2
1615918618013312,0,0,-2,0,-2,-2,-1,-2
1615918618029245,-1,-1,-1,0,-2,0,-2,-1
1615918618029245,0,-1,1,0,-3,-2,-1,1
1615918618031240,0,-2,-2,-3,-2,-1,-2,-1
1615918618031240,0,-2,0,-3,0,-2,-2,0
1615918618053182,-2,0,-3,-1,0,-1,0,0
1615918618053182,-2,-3,-1,-1,0,0,0,0
1615918618054179,-2,0,1,0,1,-1,-1,0
1615918618054179,-1,-1,-1,-2,0,-2,0,0
1615918618066146,0,-1,-1,-4,0,1,-1,-1
1615918618066146,0,-1,-2,-1,0,-2,0,-2
1615918618073128,-1,-2,-2,0,-1,-3,-3,-3
1615918618073128,-2,-2,-1,0,-2,0,-1,0
1615918618089716,-1,-1,0,0,-1,-2,-1,0
1615918618089716,-1,0,0,0,0,1,0,-2
1615918618091711,-1,-1,-2,-1,-1,0,1,1
1615918618091711,-1,-1,-1,-3,-1,-2,0,-3
1615918618111840,1,-3,-2,0,1,-3,-4,0
1615918618111840,-1,-1,-3,-2,-1,0,-1,-1
1615918618113698,-2,1,-2,-1,1,-1,0,-1
1615918618113698,0,-1,-2,-1,-4,1,1,-1
1615918618126940,-3,0,-1,-1,-2,-1,0,-1
1615918618126940,0,-2,-2,-1,0,0,0,0
1615918618132928,-2,-1,1,3,0,0,-2,0
1615918618132928,-1,0,-3,-2,2,-2,-1,-1
1615918618149605,0,-1,0,-2,-1,1,0,-1
1615918618149605,2,1,-3,-2,-2,-2,0,-1
1615918618150604,-1,-3,-1,-2,0,0,0,0
1615918618150604,1,-1,0,-1,-1,-1,-2,1
1615918618171622,0,-2,-1,0,-1,-1,-1,-1
1615918618171622,0,-1,-1,-2,-1,0,0,0
1615918618173619,0,1,1,-4,0,0,0,0
1615918618173619,-1,-1,-1,-2,-2,-2,0,-2
1615918618185922,0,-2,-1,-2,-1,0,-1,-2
1615918618185922,-2,-2,-1,-2,-1,-2,-2,-1
1615918618193616,0,-2,-3,1,-2,-2,0,1
1615918618193616,-1,0,0,1,0,1,0,1
1615918618209574,-2,-1,-1,0,0,0,0,-1
1615918618209574,-1,1,-1,-1,1,-2,-2,0
1615918618211568,0,-1,-2,-2,0,-2,-1,-1
1615918618211568,0,-1,-3,-1,-2,0,-2,-1
1615918618231539,-2,-2,-2,-2,0,-1,2,1
1615918618231539,-2,-1,2,-1,-2,-1,0,-1
1615918618233510,-2,-2,-1,1,-1,0,-1,1
1615918618233510,-1,-1,-3,-1,-3,-1,-1,-1
1615918618246498,-2,1,-2,-1,-2,-1,-1,-1
1615918618246498,-2,-1,1,0,-3,0,-1,-3
1615918618253457,0,-2,1,-1,-1,0,0,-1
1615918618253457,0,-2,1,-1,1,-2,-2,0
1615918618269414,1,0,-2,-1,-3,-3,-1,-1
1615918618269414,-2,-2,-1,-1,0,-1,-1,0
1615918618271409,0,1,-1,0,-1,0,-2,0
1615918618271409,0,0,-1,-1,0,-1,0,1
1615918618292352,1,-2,-1,-2,0,0,1,-1
1615918618292352,0,-1,-2,1,0,-1,0,-3
1615918618294346,0,-1,-2,-2,-2,0,-2,-3
1615918618294346,-1,-1,-1,-2,-2,1,-2,-2
1615918618305337,0,0,0,0,0,-1,-1,-1
1615918618305337,0,1,0,-1,-1,0,-1,2
1615918618314317,-2,-1,-1,-2,-1,-2,-1,0
1615918618314317,-2,-2,-1,-1,1,-2,0,-1
1615918618328281,1,0,1,0,-2,-1,0,0
1615918618328281,0,0,-2,-1,1,2,-2,-1
1615918618337233,1,-1,-1,1,-3,-1,1,-2
1615918618337233,-2,-2,-1,-2,0,-1,-1,-3
1615918618359197,-1,-2,-1,-1,0,-2,-2,0
1615918618359197,-1,0,-1,-2,0,-2,0,0
1615918618361169,-2,-2,-3,1,1,-2,0,0
1615918618361169,0,1,1,-2,0,-2,-2,-2
1615918618366155,-3,-1,-1,0,0,1,-2,-1
1615918618366155,-1,-2,-1,1,0,-1,-1,-1
1615918618382130,0,0,-2,-2,-1,-2,-1,-2
1615918618382130,0,0,-1,-1,-2,-1,-1,0
1615918618389936,-1,0,-1,-2,1,-1,-2,-2
1615918618389936,0,-2,-2,-1,-2,-3,-1,-1
1615918618391933,-1,0,-1,-1,-2,-1,0,-1
1615918618391933,-2,-2,0,0,-2,-1,0,0
1615918618411950,-1,-2,-1,-2,0,-2,0,-2
1615918618411950,-2,-2,-1,-1,-3,4,1,-1
1615918618413944,0,0,-1,-2,-1,0,0,-1
1615918618413944,0,-2,-3,1,-2,-2,-2,-2
1615918618425912,-1,0,0,-1,0,0,1,-2
1615918618425912,-2,-2,-1,-1,-1,-2,-2,0
1615918618434803,1,0,1,-3,-2,0,0,-1
1615918618434803,-2,-1,-1,2,0,0,-1,-2
1615918618449754,-2,-3,-1,-2,-3,-1,-2,-2
1615918618449754,-1,0,0,-1,0,-3,-2,1
1615918618450762,-1,-2,-2,-1,-1,-1,-2,-1
1615918618450762,0,-1,0,-2,0,-3,-3,-1
1615918618472233,0,-2,-2,1,-1,-2,-2,-1
1615918618472233,-1,-1,-2,-2,2,-2,-1,-2
1615918618473231,-1,0,-2,-1,-1,-3,-1,-1
1615918618473231,-1,-1,0,-2,0,0,0,-2
1615918618485222,1,-1,-2,-1,-1,0,-1,1
1615918618485222,1,-1,0,-1,-3,-2,-1,-1
1615918618495172,0,-1,-2,0,0,1,-1,0
1615918618495172,1,0,-3,1,-1,-2,-1,-1
1615918618509136,-1,1,-1,-1,-1,0,-1,-2
1615918618509136,-3,-1,-1,0,-1,-1,-2,-2
1615918618511130,-3,0,-1,-3,1,-1,1,-3
1615918618511130,-1,-3,-1,-1,-2,-2,-2,0
1615918618533094,-1,0,0,-1,-1,-2,1,-1
1615918618533094,-1,-3,-1,-1,0,0,0,-1
1615918618534069,-1,0,-1,-1,-1,-3,-1,-1
1615918618534069,-1,-2,-1,-1,-1,0,0,1
1615918618546036,1,-2,2,0,0,1,-1,0
1615918618546036,-1,-2,-3,-1,-2,0,1,0
1615918618555013,-2,-2,-1,2,1,-2,-1,0
1615918618555013,-1,0,-2,-3,-1,0,-1,-1
1615918618569972,0,1,-2,2,-4,0,-1,0
1615918618569972,1,-2,-2,-1,-2,-2,0,-2
1615918618570970,1,-1,0,-1,1,-1,0,1
1615918618570970,-1,-1,0,0,-2,0,0,0
1615918618591913,-2,-2,-3,-2,-1,-3,-1,0
1615918618591913,-1,-1,0,0,-2,0,0,-2
1615918618594905,-2,-2,0,0,-1,1,-2,-1
1615918618594905,-1,-1,1,-1,0,-1,-1,-1
1615918618614876,-1,-2,-1,-1,-2,-2,0,-1
1615918618614876,-1,-3,-2,-1,-4,-2,-1,-1
1615918618615850,-2,-1,-1,-1,0,-2,-2,-1
1615918618615850,-2,0,-2,0,-2,0,-1,0
1615918618629836,-3,-2,-1,-4,-1,-3,-1,-2
1615918618629836,0,1,0,0,0,0,-1,-1
1615918618630809,-1,-2,-1,0,-1,-1,-1,-1
1615918618630809,0,-1,-3,-1,-1,-1,-2,-1
1615918618651778,-1,0,-1,1,-2,-2,1,0
1615918618651778,0,-1,-1,-2,-1,-2,-2,-1
1615918618653748,0,0,1,-1,-3,0,-1,-1
1615918618653748,-3,-1,0,-1,0,1,0,-1
1615918618665521,-2,-1,-3,-3,-3,-1,-1,-2
1615918618665521,-1,-1,0,-1,-1,0,-1,1
1615918618682478,-1,-2,-2,-2,-1,0,-1,-1
1615918618682478,-1,-1,1,-1,-2,-2,-1,-1
1615918618689458,0,-2,0,-1,1,0,-2,-2
1615918618689458,-1,0,0,-2,1,-1,0,-2
1615918618692451,0,-2,-4,-1,0,-1,-2,1
1615918618692451,0,-1,-1,-1,-1,-1,1,1
1615918618712421,0,0,1,-2,0,-3,0,-1
1615918618712421,-2,-1,-2,0,2,-1,0,-1
1615918618713395,-1,-1,-1,0,0,0,0,0
1615918618713395,-1,1,1,-2,-2,0,-2,0
1615918618725363,-2,0,-1,1,0,0,-3,-1
1615918618725363,-1,-2,-1,-2,0,0,-2,-1
1615918618734339,-2,-2,-2,-1,-3,-2,0,-2
1615918618734339,-1,-2,1,0,-1,-2,-3,-3
1615918618749298,0,-2,-1,-2,0,-1,0,0
1615918618749298,-1,0,-1,1,-1,-2,-1,-1
1615918618751294,-1,0,1,-1,0,0,-1,-1
1615918618751294,0,0,-2,-1,1,-2,0,0
1615918618772237,-2,0,-1,1,-2,0,-1,0
1615918618772237,-2,0,-1,1,0,-2,-1,0
1615918618773235,0,-1,0,0,-2,-1,-1,1
1615918618773235,1,-2,-4,0,1,-1,-3,-2
1615918618794179,-1,-2,1,-2,-1,0,0,0
1615918618794179,0,-2,0,-1,0,-1,1,-1
1615918618796174,-2,-1,-2,-2,-1,-1,0,0
1615918618796174,-1,0,-2,-1,-1,-1,1,0
1615918618809139,-1,-1,-2,-1,0,-1,-1,-2
1615918618809139,-2,-1,-1,-1,-1,2,-1,-1
1615918618811134,0,0,0,0,0,0,0,-2
1615918618811134,0,0,0,-2,-1,-1,0,-2
1615918618832078,-1,0,-2,1,0,0,-1,0
1615918618832078,0,0,-1,-1,0,1,-1,0
1615918618834072,-2,-1,-2,0,0,-1,-1,-1
1615918618834072,0,0,-2,-1,-1,0,-2,-1
1615918618854020,0,0,1,-1,-1,0,-2,-1
1615918618854020,-1,-1,0,-1,0,-1,-2,-1
1615918618856014,0,-2,-3,-2,-1,-1,0,-1
1615918618856014,-2,-1,-2,-2,-2,-3,0,-2
1615918618869978,0,-1,0,1,0,-1,0,-1
1615918618869978,-1,0,-1,-1,1,-2,-1,1
1615918618870974,-1,0,-1,-2,-2,-2,-1,-1
1615918618870974,-2,-1,1,0,-1,-2,-1,1
1615918618891917,-3,-1,-1,0,-1,0,1,-2
1615918618891917,-2,-2,-3,0,-2,-2,0,-1
1615918618894910,-2,-1,0,-1,1,0,-1,0
1615918618894910,0,-3,-1,-1,-2,0,1,-2
1615918618914856,1,-1,-1,0,-1,-2,-2,-3
1615918618914856,1,1,0,-1,-2,1,-1,-1
1615918618915854,-1,0,-1,-3,-1,1,-1,0
1615918618915854,-1,0,-1,0,0,0,0,-1
1615918618928819,-2,-1,0,-2,-1,-1,-2,1
1615918618928819,-2,-2,-1,-2,-2,0,0,-1
1615918618935854,-1,2,0,0,-1,0,-1,-2
1615918618935854,-1,-1,-2,-2,0,-1,-2,-2
1615918618951162,-2,-2,0,-2,-2,-1,-3,-1
1615918618951162,-1,-2,-1,-1,-2,-1,0,0
1615918618960139,-1,-2,-3,-1,1,-1,-1,-2
1615918618960139,0,0,-2,0,-2,-2,0,1
1615918618982080,0,-1,-2,-2,-1,0,-1,-1
1615918618982080,-1,-2,-1,-1,-1,-1,-2,0
1615918618984075,-1,-1,1,-1,-3,-1,-2,0
1615918618984075,-1,-1,0,-1,-1,-1,-1,0
1615918618988064,0,-2,-1,-2,-1,-2,0,-2
1615918618988064,-2,-2,-3,-2,-2,-2,0,-1
1615918618997524,-2,-1,0,1,-1,-2,0,-1
1615918618997524,-1,0,-2,-2,-1,-1,0,-1
1615918619012485,0,0,-1,2,1,-1,2,0
1615918619012485,0,-2,-1,-1,0,-2,-1,-2
1615918619013484,0,-1,-1,-1,-1,0,1,0
1615918619013484,-2,-2,-2,-1,-1,-1,-1,0
1615918619034529,-2,-1,-1,0,1,1,0,-1
1615918619034529,-2,0,-2,1,-1,-2,0,0
1615918619036500,1,0,0,0,0,0,0,1
1615918619036500,-1,-1,-1,-2,0,-1,-2,-1
1615918619048350,-2,-1,1,-2,-2,0,0,0
1615918619048350,-1,-2,-1,-2,-1,-1,-1,-1
1615918619055355,1,0,-2,0,-1,-2,-1,-2
1615918619055355,-1,0,-1,0,-1,-1,0,0
1615918619072289,-2,-2,-1,0,0,-1,-2,0
1615918619072289,0,-1,1,-1,0,0,-2,-1
1615918619073287,-1,0,-1,-2,-1,0,0,-1
1615918619073287,-1,-1,-1,-2,-2,0,0,-2
1615918619094230,-1,-2,-2,0,-1,-1,-1,-1
1615918619094230,-2,1,-1,1,0,1,0,1
1615918619097223,0,-1,-2,-2,-2,-2,0,-1
1615918619097223,0,-2,-2,-2,-1,0,0,-1
1615918619109191,-1,0,-1,0,-2,-1,-1,-2
1615918619109191,-1,0,0,-2,0,-3,-4,-3
1615918619123153,-2,-1,-2,0,-3,-1,-2,0
1615918619123153,0,-2,0,0,-2,0,1,0
1615918619132129,0,-2,0,-1,-2,1,0,0
1615918619132129,-1,-2,0,-1,-1,-1,-1,0
1615918619134124,-2,-1,0,-2,-1,1,-1,-2
1615918619134124,-1,0,-2,-1,-1,-2,-1,-3
1615918619154071,0,-2,-2,-2,0,0,-2,-1
1615918619154071,1,-1,-1,0,-1,1,-1,0
1615918619156065,0,-1,0,-2,-1,-1,-1,-1
1615918619156065,-1,-2,-2,-2,-4,-1,-1,-1
1615918619169181,-1,-2,-3,-2,-1,-1,-1,-2
1615918619169181,-1,-1,-1,-1,-1,-2,-1,-1
1615918619176161,0,-1,-2,0,0,-1,-3,-1
1615918619176161,-1,1,0,1,0,1,-1,0
1615918619192356,0,-2,-1,-2,0,0,0,0
1615918619192356,-1,-3,-1,0,-1,-1,-1,-2
1615918619194350,-1,-2,-3,-1,-1,-3,-3,0
1615918619194350,-1,-1,0,-1,0,-1,-1,-2
1615918619214077,-2,-1,0,0,0,0,-1,-1
1615918619214077,-3,-1,0,-1,0,0,-2,1
1615918619216588,-3,-1,1,-2,-1,-1,-3,-2
1615918619216588,-1,0,-1,-1,0,-1,-2,0
1615918619228556,0,-1,0,-1,0,-1,0,0
1615918619228556,0,-1,-2,-3,0,0,-1,-1
1615918619236687,-1,0,-2,1,-2,0,0,-1
1615918619236687,-2,-3,-2,0,-1,-3,0,-2
1615918619259762,-1,1,-2,-1,-3,-1,0,0
1615918619259762,-1,0,2,-1,-2,-2,-3,-1
1615918619260762,-1,-1,-2,0,1,-1,0,-2
1615918619260762,0,-1,-1,0,1,1,2,-1
1615918619274918,1,0,-2,-1,-2,-4,-1,-1
1615918619274918,-1,-1,-2,-1,-1,0,0,0
1615918619276005,0,-2,0,-2,-2,-2,0,-1
1615918619276005,-1,-1,-2,-2,-2,-2,-2,-1
1615918619287763,-1,0,-1,-1,1,-3,-2,-1
1615918619287763,-1,-1,0,1,-2,-1,0,0
1615918619296984,-1,1,-1,-1,0,1,0,-1
1615918619296984,-2,-1,-1,-1,0,-1,-2,-1
1615918619311596,-1,0,0,-1,1,0,-1,-1
1615918619311596,0,-1,-4,-3,-1,-2,0,-2
1615918619313593,-1,-1,-3,-1,-1,-1,-1,-1
1615918619313593,-1,-1,-1,0,0,1,-1,0
1615918619334554,-2,0,2,-1,-3,0,0,1
1615918619334554,0,1,-2,1,1,-2,-1,-1
1615918619336549,0,-3,1,-2,-2,-2,-1,-2
1615918619336549,-1,-1,-2,0,-2,0,-1,-1
1615918619347995,0,-3,-1,-1,-4,-2,-2,-2
1615918619347995,-1,0,0,-1,-1,-2,-1,-2
1615918619357476,-3,1,0,1,1,0,-1,-2
1615918619357476,-1,1,0,0,-2,-2,-1,-1
1615918619371096,-2,0,-2,1,0,-1,-1,0
1615918619371096,-1,-1,-1,-1,-3,0,-1,-1
1615918619380151,-1,-1,-1,-1,-1,-1,-1,-1
1615918619380151,-2,0,-1,-2,-1,0,0,-1
1615918619401918,-1,-1,0,0,1,-1,-1,-3
1615918619401918,-2,1,-1,-3,0,-2,1,-1
1615918619403914,-1,-1,0,0,1,0,0,1
1615918619403914,0,-1,-1,-1,-1,1,-2,0
1615918619407926,-1,-1,-1,0,-2,0,0,-3
1615918619407926,-1,-2,-2,0,-1,1,-1,1
1615918619423656,0,-2,-2,-1,-2,0,-1,0
1615918619423656,-4,-1,0,0,1,-1,-2,-1
1615918619431911,-2,0,0,-3,-2,-1,-1,1
1615918619431911,-2,-1,-1,-3,-2,1,0,-1
1615918619433906,-1,1,-1,0,-1,-1,-1,0
1615918619433906,0,-1,-1,-1,0,0,-1,0
1615918619454873,0,-1,0,0,-2,-3,-1,-1
1615918619454873,-1,-2,0,1,0,-1,-1,0
1615918619455871,0,-1,0,-1,0,1,1,-2
1615918619455871,-1,-1,-2,-2,-1,-1,0,-2
1615918619468109,-3,-1,-2,-2,0,-1,-1,-2
1615918619468109,-2,0,0,-1,-1,-1,-2,-2
1615918619476701,0,-1,-1,-2,-2,0,-1,0
1615918619476701,-1,-3,0,-1,-3,-2,-2,0
1615918619492016,1,-2,-3,0,1,-2,0,0
1615918619492016,-2,-1,-2,-1,-3,-1,-1,-1
1615918619495008,0,-1,-1,-1,-2,-3,-2,0
1615918619495008,0,-1,-1,-2,-3,-3,-1,-2
1615918619514953,-2,0,-3,-3,-1,-1,1,-3
1615918619514953,1,-1,-2,-1,-1,-2,0,-1
1615918619515955,-2,-1,-2,0,-1,-1,0,0
1615918619515955,-1,-3,-1,-2,-2,-1,1,-1
1615918619528371,-1,0,0,0,-1,1,-2,1
1615918619528371,-1,-3,-2,0,0,-2,-1,-2
1615918619537177,-3,-1,0,-3,-2,-2,-1,0
1615918619537177,0,0,-1,-3,0,-1,0,1
1615918619552182,-2,-2,-1,0,2,-1,-2,-1
1615918619552182,-1,-1,1,0,-1,-1,0,-1
1615918619553182,-2,-1,-1,0,1,0,1,-2
1615918619553182,-1,0,0,-1,-2,-2,1,-1
1615918619574120,0,-1,-2,0,0,-1,1,0
1615918619574120,0,-1,-2,-1,-3,0,0,-2
1615918619575748,0,-2,0,-1,-2,0,-2,-1
1615918619575748,0,0,-1,0,-1,0,-1,-1
1615918619588241,-1,-1,-1,0,-4,-2,-1,-2
1615918619588241,-1,-2,-2,-1,0,0,-2,0
1615918619597672,-1,-1,-2,-3,-1,0,0,-3
1615918619597672,-1,-1,0,0,-1,-2,-2,-3
1615918619611654,-2,-1,-2,-1,-1,-1,-1,-1
1615918619611654,0,-1,-1,-1,-2,1,0,-2
1615918619613625,1,0,0,-1,-2,-1,1,-1
1615918619613625,1,-1,1,-1,0,-2,-2,2
1615918619634783,0,-1,-1,-2,0,0,0,-2
1615918619634783,-1,-1,-1,-1,0,-2,-2,0
1615918619635757,0,0,-1,-1,-1,0,-2,0
1615918619635757,-3,-4,-2,-3,-2,0,1,-1
1615918619648228,0,0,2,-2,-3,-1,1,0
1615918619648228,-1,-1,-1,1,-2,-2,0,-2
1615918619657204,-1,1,0,-1,-2,0,-2,0
1615918619657204,0,-1,-3,-1,-1,-2,-2,-1
1615918619672188,0,-2,-3,-1,-3,-1,0,-1
1615918619672188,-1,1,0,0,-1,-1,-1,0
1615918619674159,-2,-1,-1,-1,-1,-3,0,-1
1615918619674159,0,-2,0,-2,-1,1,-2,-1
1615918619694317,-2,-2,-2,0,0,-2,0,-1
1615918619694317,-2,0,0,0,-1,-2,-1,-1
1615918619695759,0,-3,-1,-2,1,1,0,0
1615918619695759,0,0,0,0,0,-1,-1,-1
1615918619716653,-2,-1,-1,-1,-1,0,0,-1
1615918619716653,-2,-2,0,-1,0,-1,-2,-1
1615918619718647,-2,0,0,1,1,-2,0,0
1615918619718647,-3,-2,-1,0,-1,0,0,0
1615918619731447,-1,-1,0,0,-2,1,0,-1
1615918619731447,0,-1,-2,-1,0,0,0,0
1615918619745440,-1,1,-2,-2,-2,-1,-2,-2
1615918619745440,0,2,0,0,0,0,0,0
1615918619754387,0,-1,0,-2,-2,-1,-3,-1
1615918619754387,-1,0,0,-2,0,-1,0,-2
1615918619756382,-1,-1,-1,0,-2,-2,0,0
1615918619756382,-1,0,1,-2,0,0,0,0
1615918619776946,-1,0,-2,-1,0,0,0,1
1615918619776946,0,-2,-1,-2,1,1,1,1
1615918619779033,-1,-2,-1,-1,0,-1,-2,-1
1615918619779033,-1,-1,-1,3,-3,-2,-1,-1
1615918619791999,-1,-3,-2,-1,-3,-2,-3,0
1615918619791999,0,-1,-1,0,-3,-2,0,0
1615918619794992,-1,-1,-1,0,-2,-1,0,-2
1615918619794992,-1,-2,-1,0,-1,0,-1,-1
1615918619815465,0,-1,0,-1,-1,0,1,-1
1615918619815465,-1,-2,-2,0,-2,-3,-2,-2
1615918619816773,0,0,-2,1,-1,0,0,-1
1615918619816773,-3,0,-3,0,0,0,1,-2
1615918619837064,-1,-2,-2,0,1,0,-1,0
1615918619837064,-2,2,-2,-2,-1,0,-2,-1
1615918619839061,0,0,-1,-2,0,-2,-1,-1
1615918619839061,1,-1,-1,-1,0,0,-1,1
1615918619851053,-1,-1,0,-1,-1,-1,-1,-1
1615918619851053,-1,-1,-1,-1,-1,0,-2,0
1615918619858010,-1,0,-1,-2,0,-2,-3,0
1615918619858010,0,0,0,0,0,-1,0,-1
1615918619874948,-2,0,0,-1,-2,0,-1,1
1615918619874948,-1,-2,-2,-1,0,-1,0,-3
1615918619875922,-1,0,0,-1,-1,0,1,-1
1615918619875922,-1,-1,-1,-2,0,-2,-2,-3
1615918619896924,-1,1,0,0,-1,-1,-2,-1
1615918619896924,0,0,1,-1,-1,0,0,-1
1615918619899097,-2,-2,-1,0,-1,-2,-1,-2
1615918619899097,-1,-1,0,1,0,-2,-2,-1
1615918619911455,0,0,-2,0,0,-2,-2,-1
1615918619911455,0,-2,0,1,-1,-2,-2,-1
1615918619918462,1,0,1,-3,-1,-2,0,-1
1615918619918462,0,-2,-1,-2,-1,-2,-2,-1
1615918619934684,2,-1,-1,-1,0,-1,-3,-2
1615918619934684,-2,-3,-1,1,0,0,1,-1
1615918619935682,0,-3,-2,0,0,0,-1,-1
1615918619935682,-2,-1,-4,0,-2,-2,-2,0
1615918619957431,0,0,0,-3,-3,-2,0,-1
1615918619957431,-4,-1,-2,-4,-2,-1,-1,-2
1615918619958429,-3,-3,-2,0,0,-2,0,-2
1615918619958429,-1,-2,0,-2,-1,0,-1,0
1615918619971140,-1,-1,-2,-1,-1,-2,-1,-2
1615918619971140,-1,0,-1,0,-2,-1,0,-2
1615918619978587,-2,-1,-2,-2,0,3,0,0
1615918619978587,-1,-1,-1,-2,-3,-2,-1,-1
1615918619994772,-2,-2,-3,1,1,-1,0,-1
1615918619994772,1,-1,-1,-2,-1,-2,-1,-1
1615918619996749,-2,-1,-2,-1,-2,0,1,-1
1615918619996749,0,1,-2,-2,1,0,1,-2
1615918620016583,0,-2,-1,-2,0,-1,-1,0
1615918620016583,-1,-3,-1,-1,-1,-1,0,0
1615918620018577,-1,-3,0,1,-2,-2,-2,0
1615918620018577,0,-1,-1,-1,-3,-1,0,-1
1615918620031841,-1,-1,-1,0,0,-2,-1,0
1615918620031841,-1,-2,-1,0,-2,0,-1,0
1615918620037826,0,-1,-3,-3,1,-1,-1,-2
1615918620037826,0,-2,0,0,0,0,1,-1
1615918620054816,-2,0,0,0,-1,0,0,-1
1615918620054816,-1,-1,0,0,0,-1,0,-1
1615918620055814,-2,-1,-1,-1,-2,-1,-2,-1
1615918620055814,-2,0,-1,0,-1,-1,0,-1
1615918620076693,-1,0,-1,-3,-1,-1,-1,-2
1615918620076693,-1,-1,-2,-4,0,-1,-2,0
1615918620079205,0,0,-1,1,-3,0,-1,1
1615918620079205,-2,-1,-1,0,0,-2,-1,-1
1615918620092148,0,-1,1,-2,-3,-1,-1,-1
1615918620092148,-1,-1,-2,-1,0,1,1,-1
1615918620098680,0,-1,-2,0,0,0,-1,-2
1615918620098680,-2,-2,-3,-1,0,-1,-1,0
1615918620114886,0,0,-1,-2,-2,-2,-1,-1
1615918620114886,-2,0,-1,-3,-1,1,-1,0
1615918620115884,-4,-2,0,-1,1,0,-1,-4
1615918620115884,-1,-1,-2,1,0,0,0,-3
1615918620137647,0,0,-1,0,0,-1,0,0
1615918620137647,2,0,-1,0,0,-2,0,-1
1615918620138662,-2,-1,-2,-1,-3,-2,-2,-2
1615918620138662,0,-1,-1,0,-2,1,0,-1
1615918620151607,0,-2,0,1,1,0,0,-2
1615918620151607,-2,0,-1,1,-2,-3,0,0
1615918620158587,-2,0,0,-1,-1,-1,0,0
1615918620158587,0,-1,0,-1,-2,1,-1,-1
1615918620174614,-2,-2,-2,-2,-1,0,1,-1
1615918620174614,1,0,2,1,0,-2,-2,-2
1615918620175936,1,0,-2,0,0,-1,1,-2
1615918620175936,-1,1,-1,-3,0,-2,-2,1
1615918620196932,-2,-3,-1,1,-2,-1,-2,-2
1615918620196932,-1,-2,-1,-2,-1,1,-2,1
1615918620202719,1,-1,-2,-1,0,0,-1,0
1615918620202719,-2,-3,0,0,1,-1,-2,-1
1615918620210290,-2,1,-1,-2,-2,0,0,0
1615918620210290,-2,-2,-2,-1,0,-2,-1,-3
1615918620219638,0,-3,0,0,0,-1,-2,0
1615918620219638,-1,-1,-2,-2,0,-1,1,0
1615918620234912,-2,-2,-1,0,-1,0,-1,0
1615918620234912,0,-1,0,-1,-1,-1,-1,0
1615918620235804,-1,-1,0,-1,-1,-1,-2,-2
1615918620235804,1,1,-2,-1,-1,-1,0,-2
1615918620256906,0,-2,-2,-1,-1,-2,-1,-1
1615918620256906,0,-1,-2,-1,0,-1,-1,0
1615918620258904,-1,0,-1,-2,-2,-1,-2,-1
1615918620258904,-1,0,-1,-2,-1,-1,-1,0
1615918620271062,0,0,2,1,-2,0,-1,0
1615918620271062,-1,-3,-1,0,-1,0,2,-2
1615918620279520,-2,0,-1,-1,-1,-1,-3,0
1615918620279520,-2,1,-1,0,-1,-2,0,-2
1615918620295114,1,-1,0,-1,0,-2,-1,-2
1615918620295114,-1,-2,-1,-3,-2,-1,-3,-2
1615918620297111,0,-1,-1,0,-2,-2,1,-3
1615918620297111,0,-1,-1,-2,0,-3,-3,-2
1615918620317623,-1,-1,-2,0,-1,0,-1,-1
1615918620317623,-2,1,-3,1,-1,-1,-1,-1
1615918620318623,-1,0,-1,-1,-1,1,-1,1
1615918620318623,-2,-2,0,-1,-2,0,0,0
1615918620330716,-1,-1,0,0,-3,-2,-1,-1
1615918620330716,1,-1,-1,-1,0,0,1,0
1615918620339692,-3,-2,-2,-2,-2,-1,-2,-1
1615918620339692,0,-2,-1,0,-2,1,-1,0
1615918620354799,0,-3,0,-1,0,-1,-1,0
1615918620354799,-1,1,-1,-1,0,-1,0,-2
1615918620355793,0,0,-1,-1,-1,-1,-2,0
1615918620355793,0,-2,-2,0,-1,0,-1,-1
1615918620377235,-3,-3,-2,-2,0,-1,-1,0
1615918620377235,-1,-2,0,1,-2,-1,-1,0
1615918620378232,0,-2,-1,1,-1,-1,-1,-2
1615918620378232,-1,-2,-1,-1,1,-1,-1,-1
1615918620390509,-2,-1,-3,-1,-1,-1,-1,-3
1615918620390509,-1,-1,0,-2,0,-2,-1,0
1615918620399473,-1,-1,-1,-1,-2,-1,0,0
1615918620399473,0,-1,0,-1,0,0,-1,0
1615918620415160,0,-1,0,0,-2,1,0,0
1615918620415160,-2,0,0,-1,-1,1,-3,0
1615918620416785,-1,-2,-1,0,1,0,-1,0
1615918620416785,-1,0,0,-1,-2,0,-1,-1
1615918620436790,0,0,-1,-1,-2,-1,-2,0
1615918620436790,-1,0,0,0,0,-1,-1,-1
1615918620438784,-1,-3,1,-1,-2,0,-2,-1
1615918620438784,-1,-1,0,0,-1,1,0,-1
1615918620451146,-2,2,1,0,-3,-1,-1,1
1615918620451146,-2,0,-1,-1,-3,0,0,-1
1615918620459402,-3,2,-1,-1,-1,-1,-1,0
1615918620459402,-3,-2,0,-2,-2,-1,0,-2
1615918620475051,-1,-1,0,-1,-1,0,-1,-1
1615918620475051,0,-1,-2,-2,-2,1,-1,-2
1615918620476743,2,1,0,-1,1,0,0,-1
1615918620476743,-1,-1,-2,-1,-1,-2,0,0
1615918620497639,0,-4,-1,-2,1,0,-1,-1
1615918620497639,-1,-1,0,-2,-2,1,-1,1
1615918620499661,0,-3,-1,-2,-1,-2,0,-2
1615918620499661,0,1,0,-1,-2,-2,0,-2
1615918620511330,0,-1,-1,-2,1,-2,-1,-2
1615918620511330,0,0,-2,-1,-3,-1,0,-2
1615918620519661,-2,0,-1,2,-2,-2,-1,0
1615918620519661,-1,-1,-2,0,-2,0,-1,0
1615918620533999,-2,-1,-3,-1,-2,-1,0,-1
1615918620533999,-1,-1,-1,-2,0,-1,0,-1
1615918620540924,-2,0,0,-2,1,0,-2,-2
1615918620540924,-2,-1,-1,-1,0,-1,-1,-2
1615918620556911,-1,0,-1,-1,-1,-1,0,0
1615918620556911,-1,-1,-1,-1,0,-1,-1,0
1615918620558881,2,0,-1,-4,-2,-1,1,0
1615918620558881,1,0,0,0,1,-2,-2,-1
1615918620579312,-2,-1,-2,1,-1,-2,-1,0
1615918620579312,0,-1,-1,-3,-1,-2,0,-2
1615918620581288,-1,-3,-1,1,-1,2,0,-1
1615918620581288,-2,1,-2,-1,0,-2,-2,0
1615918620602393,-1,0,0,-1,2,-1,1,-1
1615918620602393,-1,-1,-1,1,-2,-3,-1,-2
1615918620603419,-1,-2,-2,-2,-1,-1,-1,-1
1615918620603419,-2,-1,-2,-2,-2,-1,-1,0
1615918620624529,1,0,-2,-2,-1,1,1,-1
1615918620624529,0,-2,0,0,-1,-1,-3,-1
1615918620626504,-2,-2,-1,-1,0,-1,-1,1
1615918620626504,0,-1,-1,-1,0,-3,-1,-1
1615918620631192,0,-2,-2,-3,-2,-1,-1,1
1615918620631192,0,-2,-1,-1,0,-1,0,0
1615918620640176,-2,-1,-2,-2,-1,0,0,-2
1615918620640176,-1,-1,-1,-1,-3,1,-1,1
1615918620655139,-1,-1,1,-1,-1,0,-3,0
1615918620655139,0,-1,-1,-1,-1,-2,0,-2
1615918620656133,-2,-1,0,0,-2,-2,0,-1
1615918620656133,0,1,-2,-2,-1,-1,0,0
1615918620677219,-1,0,-1,0,-2,-2,-2,-2
1615918620677219,-3,-1,-2,1,0,-3,-2,-1
1615918620679264,1,-1,-2,0,0,0,0,-1
1615918620679264,0,-2,1,2,-2,0,-1,-3
1615918620700029,1,-1,-1,-1,-2,-2,-1,-2
1615918620700029,-1,0,-1,-2,-1,0,0,0
1615918620701035,1,0,-2,0,-1,-3,-1,-2
1615918620701035,-1,-4,-1,0,0,-2,-1,-2
1615918620715025,-2,0,-1,-1,0,0,-2,-1
1615918620715025,-2,-3,0,-2,-1,-1,-1,0
1615918620715994,0,0,-1,-1,-1,0,-3,0
1615918620715994,0,-1,-4,0,-1,-1,-2,1
1615918620737032,-1,0,-2,0,-1,-2,0,-2
1615918620737032,0,1,0,2,-2,1,-1,-1
1615918620739026,0,-3,0,0,-2,0,-1,-1
1615918620739026,0,-1,0,-2,0,-1,-1,-1
1615918620759188,0,-2,0,-1,-1,1,0,-1
1615918620759188,-2,-1,-1,-1,0,-2,-2,0
1615918620760974,-2,0,-1,-1,0,-2,-3,0
1615918620760974,0,-1,-1,-2,0,-2,-1,0
1615918620774014,-2,0,-2,-1,-1,-2,-2,0
1615918620774014,-1,2,0,1,-1,-2,-1,-3
1615918620781057,0,-2,-1,-3,-2,-2,-2,0
1615918620781057,0,-1,1,-1,0,-1,0,-1
1615918620797004,-1,-1,0,0,2,-2,0,-1
1615918620797004,0,-1,-1,-2,-1,0,-3,0
1615918620798980,-4,-1,-2,0,-1,-1,-2,-3
1615918620798980,-2,-2,-2,0,0,0,-1,0
1615918620819680,1,-3,-2,1,-2,1,-2,0
1615918620819680,0,-1,-1,0,-1,0,0,-2
1615918620821683,0,1,1,0,-2,-2,1,0
1615918620821683,-1,-1,-1,-2,-2,1,0,-1
1615918620833665,0,-1,-1,-2,-1,0,-1,-2
1615918620833665,-1,-1,-1,-2,0,0,0,1
1615918620841344,1,-1,-1,-2,0,-2,0,-2
1615918620841344,-1,-1,0,0,-2,-2,-1,-1
1615918620856701,-1,-2,0,-3,0,0,-1,1
1615918620856701,-1,-3,-2,0,-1,-1,1,-2
1615918620858673,-1,1,1,0,0,1,0,-1
1615918620858673,-1,-1,-3,-1,-1,-1,-1,-1
1615918620880154,0,-2,0,0,-1,-1,-2,-1
1615918620880154,-1,0,-1,-2,-1,-1,-1,1
1615918620881148,-1,-1,-1,-2,-1,-2,-3,-1
1615918620881148,-1,-1,0,0,-1,-2,-1,-1
1615918620894143,-3,1,-2,-1,-1,-2,0,1
1615918620894143,-1,-2,-2,-1,-1,-2,-2,0
1615918620902091,-1,-2,-1,-2,-1,0,1,0
1615918620902091,-1,0,-1,-1,-2,-2,-1,-1
1615918620916995,0,-2,-1,-2,-2,-3,0,-1
1615918620916995,-1,-1,0,-1,-2,-1,-1,-1
1615918620918993,-3,-2,0,0,-1,0,-2,-1
1615918620918993,-2,0,-1,-1,-2,2,0,-1
1615918620939275,-1,0,0,1,-1,0,0,0
1615918620939275,0,-1,-2,0,1,-1,0,-1
1615918620941269,-1,-1,-1,-2,-1,0,-1,0
1615918620941269,-1,-1,-1,-1,-2,0,-3,0
1615918620953497,-1,-1,-2,-2,0,-1,-2,0
1615918620953497,-1,-1,-2,0,-1,-1,-1,0
1615918620960505,0,1,-1,-3,1,-3,-1,-1
1615918620960505,-1,-3,-3,-2,0,0,1,0
1615918620977612,0,0,-2,-1,-1,-1,0,-2
1615918620977612,-1,0,-3,-2,0,-3,-1,-2
1615918620978443,0,-2,1,0,-1,0,-1,0
1615918620978443,-1,-1,-1,-2,0,-2,-2,0
1615918621000102,0,-1,-1,1,-1,-1,-1,-1
1615918621000102,-2,-1,0,-2,-1,0,-1,0
1615918621001849,0,-2,-3,1,-2,-2,-1,-1
1615918621001849,-1,1,1,0,0,0,0,-1
1615918621013899,-1,-2,-2,-1,-2,1,-1,-2
1615918621013899,-2,0,-1,-1,0,-1,-1,-2
1615918621021101,-1,-3,-2,-1,1,-3,-2,-1
1615918621021101,0,-3,0,-2,0,1,0,0
1615918621037659,-3,-1,-2,-1,0,0,-2,-2
1615918621037659,-1,-3,-1,3,0,-1,0,0
1615918621038659,-3,-1,-1,0,-4,-1,-3,2
1615918621038659,-1,0,-1,0,0,0,-2,-1
1615918621067421,1,-3,0,0,-1,-2,-1,-1
1615918621067421,-1,-1,-1,-1,-1,0,0,-1
1615918621068419,0,0,-1,-1,-2,0,0,0
1615918621068419,-1,0,0,0,-3,-2,-1,-1
1615918621074246,-1,2,-1,-1,1,-1,0,-2
1615918621074246,-2,-1,-2,-1,-3,-1,-3,-1
1615918621081228,-1,-1,-2,0,0,0,-1,-1
1615918621081228,0,-2,-2,-2,0,-4,-2,-2
1615918621097270,-2,-2,0,-2,-2,0,-1,-2
1615918621097270,1,-2,1,-2,-2,-1,-2,-2
1615918621099292,-2,0,0,-2,-2,1,-1,-2
1615918621099292,-1,-2,-1,-2,-2,-1,-2,0
1615918621120000,-1,-1,1,-1,-1,-1,-1,-2
1615918621120000,-1,0,0,-2,1,1,-2,0
1615918621121000,0,-1,0,-1,-3,0,0,-1
1615918621121000,-2,-1,0,0,-1,0,0,-1
1615918621133799,1,1,1,1,-3,-1,0,0
1615918621133799,-2,-1,-1,-1,-1,0,-1,0
1615918621142323,0,0,-2,-1,-1,-1,-2,-1
1615918621142323,-3,-2,-3,-2,-1,-1,-3,-2
1615918621156814,-1,1,0,0,-1,-3,-1,0
1615918621156814,0,-1,0,0,-1,-2,0,-1
1615918621158783,-2,-2,-2,-2,1,-3,-1,-2
1615918621158783,0,0,0,0,-1,0,-1,0
1615918621180197,-2,-3,-3,-2,-2,-2,-2,-2
1615918621180197,-1,-1,0,-1,0,-1,0,0
1615918621181787,-1,-1,-2,-1,-3,0,-1,-1
1615918621181787,-1,-1,0,-1,-2,-2,0,-2
1615918621192801,-2,-2,-2,-2,0,0,-2,0
1615918621192801,-1,-1,-1,-2,0,0,-2,-1
1615918621201863,-1,-3,-1,-2,-1,-2,0,0
1615918621201863,-1,-1,-2,0,1,-2,-2,-2
1615918621217652,1,0,0,0,0,1,1,1
1615918621217652,0,-3,-2,-1,-3,-2,-1,-1
1615918621218371,-1,-1,1,1,0,0,-2,-2
1615918621218371,-2,-1,-3,0,1,0,-1,0
1615918621240290,-1,-1,-1,-2,0,-2,-1,1
1615918621240290,0,1,1,-1,-1,0,-1,-1
1615918621241288,0,-2,-5,-3,0,0,-1,-1
1615918621241288,1,0,0,-2,-2,-1,-1,-2
1615918621253280,-1,-1,-2,-1,-1,-1,0,-1
1615918621253280,-2,0,-2,1,0,-1,-3,-1
1615918621262696,0,-1,1,-2,0,-1,-1,-2
1615918621262696,-1,-2,0,-1,-1,-1,0,-1
1615918621277629,-1,-1,-2,0,0,-2,0,-2
1615918621277629,-1,-1,0,-2,-2,-1,1,-1
1615918621278630,-2,-1,-1,1,-1,-2,-2,0
1615918621278630,-2,-1,-3,0,0,1,-1,-1
1615918621300000,0,0,0,-2,-1,-1,-1,-1
1615918621300000,-1,-2,0,-1,1,-1,-1,1
1615918621300973,-1,-1,0,1,0,0,-1,-1
1615918621300973,0,-2,0,1,0,-1,0,-2
1615918621313419,-1,-2,-2,-1,-2,-1,-2,0
1615918621313419,0,0,-1,-1,-2,-1,0,-2
1615918621322218,-3,0,-1,0,1,0,-1,-1
1615918621322218,-1,0,-1,-1,-2,0,1,-1
1615918621336731,0,-1,1,-1,0,-1,-1,-1
1615918621336731,0,-1,-2,-1,-1,-2,0,-1
1615918621344712,0,-1,-2,-1,1,0,0,-1
1615918621344712,-1,-1,-1,-1,1,-1,-2,1
1615918621367674,-2,-1,-1,0,0,0,0,-1
1615918621367674,-1,-2,-4,-2,-2,-1,-1,0
1615918621368645,0,-1,0,-3,0,0,1,-1
1615918621368645,-1,-2,-2,-1,0,-1,1,0
1615918621373655,0,0,-2,0,-1,-1,-1,-2
1615918621373655,-2,-2,-2,-1,-1,-1,0,0
