timestamp,emg1,emg2,emg3,emg4,emg5,emg6,emg7,emg8
1615922407778119,-1,-4,-25,-9,-6,-2,2,-1
1615922407778119,-1,-3,0,2,3,1,0,-3
1615922407779118,0,0,-15,-7,5,4,1,3
1615922407779118,-4,-3,-5,-5,24,-1,-2,-1
1615922407792081,1,6,22,0,-24,-5,-2,0
1615922407792081,-3,-2,-8,6,-1,8,-2,0
1615922407799063,0,-2,-18,-19,-3,-7,-1,-2
1615922407799063,-2,-1,-15,-1,-11,-2,0,-4
1615922407823000,-1,0,16,4,9,11,0,-2
1615922407823000,-1,0,22,13,-25,-4,-1,-3
1615922407823997,0,-2,2,-7,19,4,1,0
1615922407823997,-1,-2,-20,6,-5,-4,-4,-3
1615922407837959,1,-1,-14,-12,13,1,0,2
1615922407837959,-1,2,5,-1,-13,3,1,0
1615922407838956,-2,-5,-11,-9,-15,-5,-3,-1
1615922407838956,2,6,22,-5,4,12,2,0
1615922407851934,-3,-10,-23,1,9,0,1,-2
1615922407851934,1,3,-12,-11,-10,-7,-2,1
1615922407858903,-2,1,5,5,-3,-4,-2,0
1615922407858903,-1,-4,5,1,-3,-2,-1,-1
1615922407874887,-3,-5,7,8,-8,-1,-2,-2
1615922407874887,1,-2,-6,-8,35,8,1,1
1615922407881841,0,2,4,-2,-31,-7,0,-3
1615922407881841,1,1,13,12,20,3,1,0
1615922407897800,-1,-2,-14,-2,-19,-3,-2,-3
1615922407897800,0,1,-1,2,18,0,1,3
1615922407899794,-3,-1,8,-5,11,-4,-1,-2
1615922407899794,-4,-7,-22,-24,-2,-1,-3,0
1615922407911783,3,6,20,15,-9,-5,0,0
1615922407911783,-3,-5,-14,-4,-46,0,-2,-1
1615922407918744,0,-2,20,-3,5,3,2,-2
1615922407918744,1,3,-4,4,22,-8,-1,-1
1615922407934728,-4,-3,-9,-11,8,1,1,-2
1615922407934728,-1,-1,2,27,-6,-2,-2,-1
1615922407941707,-2,-4,-26,-17,12,1,-2,-1
1615922407941707,0,5,27,14,-20,-3,-2,-1
1615922407957665,0,0,-4,-21,-9,-4,-1,1
1615922407957665,-4,-6,0,16,31,2,-2,-5
1615922407959669,1,-2,-12,4,-23,-22,-1,1
1615922407959669,1,3,19,-5,1,4,0,-1
1615922407972599,0,-2,-15,1,-1,-2,0,1
1615922407972599,-2,-5,-11,-17,2,2,-1,-1
1615922407979606,0,-1,-16,-18,10,4,0,1
1615922407979606,-2,-4,16,12,-6,-1,-1,-3
1615922408002558,-4,-4,-6,-1,3,-10,-3,-2
1615922408002558,0,2,9,3,15,0,-2,1
1615922408004514,-1,0,-8,-21,6,5,-1,0
1615922408004514,-2,-2,-12,10,-6,1,1,1
1615922408025478,1,-1,10,14,5,2,-1,-1
1615922408025478,0,2,11,11,0,1,1,-1
1615922408027474,-4,-2,7,-5,11,-1,-1,-2
1615922408027474,-2,-2,-13,-9,6,12,0,0
1615922408032618,-2,-5,-9,3,6,-3,-3,0
1615922408032618,-2,-2,-19,-29,-22,2,0,-1
1615922408038625,1,5,32,36,5,6,0,2
1615922408038625,0,-5,-18,-7,-10,-1,-1,-1
1615922408054585,2,0,-17,1,-8,1,2,1
1615922408054585,-2,0,1,-4,-3,-2,-2,-2
1615922408061566,-2,-5,-15,-22,10,9,-1,-1
1615922408061566,0,7,25,34,-4,-5,0,0
1615922408077523,-3,-3,-1,-10,-2,-3,-1,-2
1615922408077523,0,2,11,-7,-2,-3,0,-1
1615922408079492,1,-2,-2,13,1,4,-1,-2
1615922408079492,-1,-4,-16,-28,-2,-9,-2,-3
1615922408092656,2,4,24,8,-2,-1,0,1
1615922408092656,0,-2,5,5,-20,0,1,0
1615922408098640,-2,-1,-2,8,6,-2,-2,-3
1615922408098640,-1,-2,-22,-30,-11,-10,-2,-1
1615922408122577,1,8,21,6,3,-19,-4,-3
1615922408122577,-1,-2,-19,-1,2,-1,0,0
1615922408124576,2,4,30,5,-1,-1,-1,-1
1615922408124576,-1,-2,-7,-1,3,2,-1,-1
1615922408137535,-3,-3,-6,-9,-28,-1,-1,-2
1615922408137535,1,1,7,10,10,3,1,0
1615922408139530,-1,0,-12,1,-21,-8,-1,-2
1615922408139530,-2,-1,14,7,37,5,-1,-1
1615922408151501,-2,-3,-11,-11,-10,-3,-1,-2
1615922408151501,2,3,29,19,-7,1,1,2
1615922408160475,-3,-7,-19,-4,7,7,0,-3
1615922408160475,0,2,-2,1,7,-8,-1,-1
1615922408174462,-1,-6,-12,-5,-16,5,0,-2
1615922408174462,-2,1,-9,-13,-33,-34,-7,-3
1615922408181419,-1,-1,4,1,42,6,-2,-2
1615922408181419,0,-4,-2,0,23,0,-1,-3
1615922408197375,1,-1,3,9,-4,1,-1,-1
1615922408197375,-3,-4,2,-4,-9,6,-1,-3
1615922408199371,0,0,1,-6,-9,-2,-1,-1
1615922408199371,2,3,14,14,-22,-4,-1,2
1615922408211363,-2,3,22,15,25,6,2,2
1615922408211363,-2,-5,-6,2,14,9,-1,-4
1615922408220313,0,-3,-14,-10,-21,-9,-2,0
1615922408220313,0,1,-6,-10,21,3,1,-1
1615922408235298,-1,-2,-9,10,19,1,-1,0
1615922408235298,1,-2,-10,-6,-5,-1,2,0
1615922408241284,-1,0,2,0,8,0,0,0
1615922408241284,-5,-6,-12,-4,-26,4,-2,0
1615922408258413,-1,-1,-1,2,-8,14,-1,-2
1615922408258413,0,0,-1,-19,13,-6,-1,1
1615922408259335,2,7,19,28,-6,2,-1,2
1615922408259335,-1,-4,7,-1,-8,-2,0,0
1615922408271303,-1,-5,-19,-19,28,3,0,-2
1615922408271303,1,-2,-5,4,8,1,-2,-1
1615922408280307,1,5,9,-4,-27,-5,0,1
1615922408280307,-2,-2,1,0,-7,-4,-1,-2
1615922408294772,-3,0,8,1,4,-3,-1,1
1615922408294772,-3,-5,-13,-1,-8,-2,-3,-2
1615922408301735,-3,-5,-10,-12,3,-3,-1,0
1615922408301735,1,3,24,19,-10,-4,2,0
1615922408317713,0,-3,-36,-25,20,5,2,0
1615922408317713,1,9,60,9,-35,-3,-2,-1
1615922408319684,-4,-3,-3,17,18,4,-1,-4
1615922408319684,-1,-2,-18,-12,-14,-5,-3,0
1615922408331652,-1,-3,-6,1,18,11,-3,-1
1615922408331652,2,1,-1,-9,-10,-2,1,1
1615922408340628,-1,-2,1,-5,2,-1,-1,-1
1615922408340628,1,0,0,-3,3,2,-1,-1
1615922408356585,0,-2,0,8,-11,-1,-1,0
1615922408356585,-3,-2,-18,-12,-8,-2,-2,0
1615922408361571,0,-1,1,0,17,-8,-2,-2
1615922408361571,-2,-5,-12,0,-3,-6,-2,-2
1615922408377549,1,-1,12,-6,-22,-10,0,-2
1615922408377549,-1,1,-7,-4,20,9,0,-1
1615922408379524,0,-1,6,21,-21,-1,-1,0
1615922408379524,-2,-4,-2,-4,0,0,-1,-2
1615922408391808,-1,-2,-6,-4,-13,-6,-1,-1
1615922408391808,-2,-4,14,2,11,-4,-1,-2
1615922408400771,0,3,-5,6,-3,-4,-2,-1
1615922408400771,-1,-2,-7,-20,5,3,-4,-1
1615922408414706,1,4,17,17,-9,-4,0,0
1615922408414706,-3,-4,-11,0,18,3,-3,-4
1615922408421716,1,-2,9,-10,-14,3,0,0
1615922408421716,1,0,3,36,10,6,2,2
1615922408437668,0,1,-6,-9,-6,-8,-1,0
1615922408437668,-1,-1,-10,4,16,5,0,-3
1615922408443730,-1,2,11,-13,-15,-3,0,0
1615922408443730,-1,0,1,-6,-4,-3,0,2
1615922408451607,-2,-1,7,-3,18,8,-1,-1
1615922408451607,0,-4,-12,0,-15,-3,0,-2
1615922408460614,0,0,-2,-8,-4,-1,-1,0
1615922408460614,-1,0,-7,-12,-19,0,0,0
1615922408474572,-1,-2,1,8,2,-8,-2,-2
1615922408474572,1,5,17,-16,-49,-3,1,1
1615922408481529,-3,-5,-15,0,12,-4,-1,-2
1615922408481529,-2,-1,3,11,5,-9,-2,-4
1615922408497510,3,4,10,-3,-48,-14,-2,1
1615922408497510,-2,-4,-9,-3,18,2,-1,-1
1615922408504500,-1,-3,-14,-2,5,6,-3,-1
1615922408504500,0,0,1,-10,-2,0,1,0
1615922408511447,-1,-2,-7,-7,9,0,-1,-1
1615922408511447,-2,-4,-8,6,7,-5,-1,0
1615922408520423,0,4,0,-10,-10,0,1,-1
1615922408520423,-3,-1,-15,-25,-9,5,-2,-5
1615922408534409,0,3,23,31,-14,-4,-1,1
1615922408534409,-1,0,12,3,10,0,-1,-1
1615922408541366,-1,-1,-18,-5,7,1,1,1
1615922408541366,-2,-5,-8,-15,-6,2,-1,-3
1615922408557324,-1,-2,1,-1,-70,-27,-3,-3
1615922408557324,1,0,-2,8,39,5,0,0
1615922408564305,-1,-3,4,-5,-16,-3,-2,0
1615922408564305,-1,-1,17,0,3,-2,-1,-3
1615922408571287,-1,-1,-13,10,20,9,-1,1
1615922408571287,3,1,-5,1,11,4,0,0
1615922408580262,-1,-3,-1,0,-11,-8,-1,-1
1615922408580262,2,6,40,10,14,6,1,1
1615922408595023,-3,-4,-2,9,13,7,0,0
1615922408595023,-1,-1,-14,-7,-8,-5,-2,-2
1615922408602003,-2,-3,-5,-5,16,3,0,-3
1615922408602003,-1,-1,-18,-4,-30,-9,-3,-1
1615922408616963,1,-1,-2,-15,14,5,0,-1
1615922408616963,0,2,16,13,6,9,1,1
1615922408623944,-2,-3,-13,-16,8,-19,-5,-4
1615922408623944,1,-4,1,13,-24,0,-1,0
1615922408640901,-2,-1,1,-7,14,4,0,-1
1615922408640901,-4,-7,-29,-16,5,2,-2,-1
1615922408642895,0,1,16,23,18,6,-1,-2
1615922408642895,0,2,2,5,2,-7,-1,-1
1615922408654862,-1,-2,-13,-9,11,4,0,-1
1615922408654862,-1,-4,-4,-2,-5,-8,-1,-2
1615922408661843,0,-1,-8,-18,14,5,1,0
1615922408661843,-2,0,-10,-7,0,-1,-2,-2
1615922408677825,0,-2,-4,0,-6,2,2,0
1615922408677825,-1,0,14,1,0,-2,-1,1
1615922408685779,-3,-4,-10,-5,-26,-7,-2,-2
1615922408685779,0,-1,2,-1,21,8,1,-2
1615922408707720,-1,-1,7,4,21,-1,-1,-2
1615922408707720,1,3,9,12,18,-9,-3,0
1615922408709715,-4,-3,-1,-7,-53,-4,-3,-3
1615922408709715,-2,-3,-13,-7,13,-1,-1,1
1615922408714702,-2,-1,5,-5,-7,-4,-2,0
1615922408714702,0,0,1,1,-2,1,-1,-1
1615922408721711,2,4,14,-7,1,-4,0,1
1615922408721711,-1,-6,-17,-2,5,-6,-1,-2
1615922408737674,2,2,-10,11,6,11,0,2
1615922408737674,-3,-3,-7,-10,-17,-15,-4,-3
1615922408743648,-2,-3,-12,-16,6,6,-1,-1
1615922408743648,-3,-7,-24,-9,-13,-1,-1,-2
1615922408760580,0,3,22,19,8,-4,-2,-2
1615922408760580,-2,-5,-25,-15,-28,1,1,1
1615922408761576,0,0,3,3,-6,9,-1,-1
1615922408761576,-3,-2,1,9,-4,-16,-3,-2
1615922408782520,-2,-5,-23,-25,7,2,0,-1
1615922408782520,1,6,41,32,-3,0,0,0
1615922408784515,-3,-2,-7,-3,13,6,0,-1
1615922408784515,0,3,11,11,25,6,2,2
1615922408796754,-3,-2,-17,-25,-12,2,-2,-3
1615922408796754,-2,-2,-3,3,-6,1,-1,-1
1615922408803734,1,-2,4,22,3,3,1,-1
1615922408803734,-2,-2,-3,-5,18,-10,-5,-1
1615922408820688,0,0,3,-7,-5,-5,-3,0
1615922408820688,0,0,-11,-12,-5,1,0,-2
1615922408821686,-1,-1,0,11,17,2,1,-1
1615922408821686,-1,-2,-7,-13,-14,1,-1,-1
1615922408834652,0,-2,-6,17,-4,-3,0,0
1615922408834652,1,0,-7,-1,-5,2,1,-1
1615922408841633,0,1,10,-6,-8,-7,0,-2
1615922408841633,-1,-2,-1,-7,-14,14,1,0
1615922408857590,-1,-3,-16,-8,-13,-27,-2,-2
1615922408857590,1,5,41,35,17,3,-1,-1
1615922408863574,-1,0,7,-1,-1,-2,-3,-3
1615922408863574,3,2,-3,-12,25,3,3,4
1615922408880528,-2,-2,1,-9,-50,5,-1,-2
1615922408880528,-1,-3,-5,-4,26,-14,-4,0
1615922408881526,-2,-4,-2,3,0,-2,0,1
1615922408881526,-2,0,0,12,-5,-7,-2,-4
1615922408894996,-4,-2,0,-2,15,7,-1,-1
1615922408894996,-1,-1,6,-4,-27,-2,1,1
1615922408901978,-1,-3,-3,-4,5,0,-3,-2
1615922408901978,0,-1,-7,-10,-13,-4,-1,-3
1615922408916938,-3,-5,-23,-6,15,2,0,-3
1615922408916938,-1,0,-7,-13,-12,18,1,-1
1615922408923920,1,1,-2,9,21,-4,0,2
1615922408923920,-1,-2,1,-4,-23,1,-1,-2
1615922408939877,-1,-1,4,-4,7,-1,-1,-3
1615922408939877,-1,-3,-10,-11,19,7,0,-1
1615922408941871,-1,-2,-10,-4,-15,-2,-1,-1
1615922408941871,2,5,27,16,19,2,1,2
1615922408953839,-1,-2,4,1,-5,-5,-2,-3
1615922408953839,-2,-3,5,-2,-21,-5,-1,-2
1615922408962815,0,-3,-22,-21,0,-1,-1,0
1615922408962815,-3,-3,11,26,3,0,0,-3
1615922408976778,2,2,12,-6,16,6,1,-2
1615922408976778,1,-3,-11,3,-16,-2,0,2
1615922408983760,-2,-2,-7,-8,2,-6,-2,-2
1615922408983760,-1,2,9,3,-22,-4,-1,0
1615922409000223,0,-1,-4,-2,6,2,1,-1
1615922409000223,0,3,-1,-9,-7,-3,0,-1
1615922409002217,-3,-2,-27,-9,41,13,-1,-1
1615922409002217,-1,0,32,20,-54,-4,-2,-1
1615922409015183,2,0,12,4,34,5,-2,1
1615922409015183,-2,0,-6,14,10,-4,-2,-2
1615922409029148,1,5,14,2,-7,4,0,1
1615922409029148,-1,-3,-19,-22,-41,-8,-1,-1
1615922409037124,-1,0,2,4,0,-2,0,-1
1615922409037124,-3,-6,-9,-5,1,5,-2,-2
1615922409044107,1,4,14,13,-2,3,2,1
1615922409044107,2,3,4,-3,15,-1,-1,2
1615922409061061,0,-3,-4,1,-9,-5,-1,-1
1615922409061061,-2,-7,-12,-12,-2,-3,-1,-2
1615922409062058,1,-1,-2,-5,-4,-2,-1,0
1615922409062058,-2,-3,1,5,16,4,-1,0
1615922409075023,1,1,0,-16,-11,-5,1,0
1615922409075023,1,1,25,13,12,-4,-1,-2
1615922409082006,-3,-1,-8,-4,20,10,1,-2
1615922409082006,-3,-3,-26,-14,-13,1,-4,-5
1615922409096969,-1,-2,8,4,-18,-7,-2,0
1615922409096969,-1,-1,-5,-3,34,3,0,0
1615922409103947,0,-3,15,15,-12,-1,0,-2
1615922409103947,1,-3,-19,-16,32,0,-2,1
1615922409120900,-3,-2,-6,4,2,1,-1,-2
1615922409120900,-1,-1,-10,-11,-20,-6,-3,-1
1615922409121898,3,5,17,20,-16,-5,1,1
1615922409121898,-1,-3,-14,-4,46,4,0,0
1615922409134863,-3,-1,5,-9,-10,-7,-3,-1
1615922409134863,0,1,12,14,-16,-4,-1,-1
1615922409142844,-2,-4,-5,-11,19,7,-2,0
1615922409142844,-1,-6,-8,-6,-10,-23,-5,-3
1615922409157802,1,2,8,8,-14,3,2,3
1615922409157802,-1,2,4,2,0,2,-2,-4
1615922409163786,-3,0,1,-10,-5,-5,0,-2
1615922409163786,0,0,-9,24,8,1,0,0
1615922409180740,2,0,-12,-31,3,-1,2,0
1615922409180740,0,-1,4,13,-4,-1,-1,0
1615922409181738,-1,-5,13,13,-21,-10,-4,-2
1615922409181738,-4,-3,-7,-11,28,11,1,-4
1615922409193708,-1,2,12,3,-5,-5,-3,-2
1615922409193708,-1,-6,-19,-12,-12,0,2,2
1615922409202682,1,3,3,11,-2,-5,-1,1
1615922409202682,-1,5,-1,-12,-6,4,0,1
1615922409217643,-2,-3,13,17,21,6,-2,-3
1615922409217643,1,1,-19,-17,0,-3,-2,-1
1615922409223626,-2,-1,5,28,-8,-1,0,-2
1615922409223626,1,3,-2,-6,-10,-17,-2,1
1615922409240582,-3,-2,6,-2,14,-3,-2,-3
1615922409240582,-1,-3,-6,1,-7,1,0,-3
1615922409242578,-1,-1,-13,-22,-2,-10,-2,0
1615922409242578,0,-1,-7,3,-7,5,1,0
1615922409254562,-1,-2,1,22,-5,4,1,-1
1615922409254562,-1,-1,0,-11,2,-3,-1,0
1615922409263522,0,-1,-9,-14,4,2,-2,-3
1615922409263522,-2,0,8,-6,20,4,0,-2
1615922409277482,2,0,-16,-10,-43,-5,-1,0
1615922409277482,-2,-5,4,7,4,1,-1,-3
1615922409284464,-2,-4,-12,3,2,-1,-2,-2
1615922409284464,-3,-3,10,-16,1,-1,-2,-1
1615922409300420,-1,1,7,8,-5,-2,-4,-1
1615922409300420,-1,2,-8,-21,15,12,2,3
1615922409302415,-3,-5,-4,7,-16,-18,-2,-2
1615922409302415,-1,-5,-9,6,13,6,0,0
1615922409314384,0,6,22,9,23,10,0,-1
1615922409314384,-2,-4,-21,-38,-19,-5,-1,1
1615922409323360,0,1,15,15,-7,-12,-1,-3
1615922409323360,0,1,3,0,2,7,1,-1
1615922409337322,-2,-4,-13,-3,3,-3,-2,-3
1615922409337322,1,2,-1,10,-2,-3,-1,1
1615922409344303,-2,-1,-3,-12,-10,1,-3,0
1615922409344303,0,-2,-13,0,-32,-1,0,-2
1615922409359416,-4,-4,-33,-14,13,-1,0,-1
1615922409359416,0,3,19,6,-4,-6,-3,-2
1615922409366393,-3,-3,-13,-9,-5,12,1,0
1615922409366393,1,-2,3,-3,-14,-4,0,0
1615922409374345,0,-1,9,-9,1,4,0,1
1615922409374345,0,-3,-22,-8,13,-4,-1,-1
1615922409389305,-2,1,4,-7,46,13,0,-2
1615922409389305,-4,-2,17,11,-15,-8,-1,-3
1615922409397284,2,2,-7,-6,11,-1,-1,-1
1615922409397284,-2,2,29,13,-18,-4,-2,-3
1615922409404266,1,1,4,-10,4,-3,-3,0
1615922409404266,-1,-3,7,6,-4,-5,-2,-2
1615922409420223,-1,-4,-10,2,-4,-5,-1,1
1615922409420223,-4,-4,-22,-13,-11,-2,0,-2
1615922409426243,-1,-7,-19,1,-6,-3,-2,-3
1615922409426243,-1,2,2,-9,-6,2,1,2
1615922409434186,-1,-5,-23,-16,26,9,4,1
1615922409434186,-1,0,39,47,-6,-13,-2,-3
1615922409443162,1,-3,-15,-13,1,10,-1,2
1615922409443162,-2,-1,-2,-1,4,-15,-3,-2
1615922409457128,-1,0,-8,-3,-8,-3,-3,-2
1615922409457128,1,0,11,-6,13,6,1,0
1615922409464106,2,3,2,-8,-11,-1,0,-1
1615922409464106,0,2,21,16,6,-1,-3,-2
1615922409480063,1,1,6,1,-2,-3,1,3
1615922409480063,-4,-5,-24,-10,32,5,-1,-2
1615922409487045,0,0,21,-11,-23,-13,0,-1
1615922409487045,-1,-1,1,7,12,6,0,-2
1615922409494029,-2,2,7,14,-8,0,-1,-2
1615922409494029,-1,-3,-5,-9,-23,3,0,0
1615922409503002,-2,-1,-4,-4,-9,-5,-2,-2
1615922409503002,-1,-3,-31,1,5,0,-2,-1
1615922409516964,-5,-6,-9,0,-43,0,-2,-3
1615922409516964,2,0,-21,6,37,1,1,3
1615922409523946,-4,0,13,-6,-4,-5,-2,-3
1615922409523946,1,-1,-5,8,7,16,1,1
1615922409539908,-2,-3,-9,-15,-14,-26,-3,-3
1615922409539908,0,2,1,-5,-16,-2,-2,0
1615922409546885,-1,-1,-6,4,12,-1,-2,0
1615922409546885,-1,-2,-6,-16,21,6,-1,-1
1615922409562842,1,1,11,-5,0,-5,-1,0
1615922409562842,-2,0,11,20,-8,1,0,-1
1615922409564837,-1,-1,0,13,3,0,-1,0
1615922409564837,3,3,10,-21,-1,-6,2,1
1615922409576805,-4,-5,-5,7,9,2,0,-2
1615922409576805,0,4,23,21,-24,-7,-1,-2
1615922409583786,-2,-6,-13,-10,-3,3,-1,-3
1615922409583786,-1,5,35,35,13,-2,0,0
1615922409599743,-1,-3,-5,-9,-70,8,-2,-3
1615922409599743,-1,-3,-16,-15,26,-2,-1,-1
1615922409606728,0,0,5,1,10,-3,2,-1
1615922409606728,-1,-1,-20,-2,-31,-3,-1,-1
1615922409622682,0,1,7,4,25,6,0,1
1615922409622682,-1,-2,9,-5,-32,-1,-2,0
1615922409624676,0,-1,-22,-10,40,-6,-4,0
1615922409624676,0,-1,1,-2,-15,-1,-1,-1
1615922409637642,-2,-2,7,15,18,1,-1,-1
1615922409637642,-1,-2,-13,-15,-17,-1,1,-3
1615922409643650,1,5,6,14,13,2,2,1
1615922409643650,0,1,14,-6,-6,0,-1,0
1615922409659829,-2,-1,-5,-2,3,-3,-3,0
1615922409659829,-4,-3,-7,-13,6,0,0,-1
1615922409666701,0,-1,-3,7,10,4,-1,-1
1615922409666701,-2,0,-6,-7,-6,-12,-3,-5
1615922409682686,1,-1,1,7,-2,8,1,-2
1615922409682686,0,0,-13,-19,-13,-19,-1,3
1615922409684654,-1,3,32,6,2,-5,-2,-1
1615922409684654,0,-5,-31,-19,2,3,-2,-1
1615922409697619,0,-4,3,29,14,-2,-1,-2
1615922409697619,1,3,7,1,5,5,0,-1
1615922409703603,-2,-3,-15,-14,-16,0,1,1
1615922409703603,-2,-3,5,0,-11,-2,-2,-1
1615922409719560,-1,-2,-7,-15,21,-5,-3,-2
1615922409719560,-1,-4,3,10,17,4,-2,-3
1615922409726542,1,-1,-7,1,-28,1,1,1
1615922409726542,0,0,-6,-13,-2,4,1,-1
1615922409742499,2,6,29,-4,-7,-2,2,3
1615922409742499,0,0,14,28,-6,-3,0,0
1615922409744495,-2,2,2,-8,-9,1,0,-3
1615922409744495,-3,-5,-10,-1,4,-3,-3,-6
1615922409757483,1,-2,-9,-2,34,2,2,2
1615922409757483,1,4,-1,-19,-8,-11,-1,-2
1615922409764441,0,2,16,15,19,-7,-2,-1
1615922409764441,-1,-1,0,-1,-4,1,-1,-2
1615922409779401,0,4,7,14,7,6,1,0
1615922409779401,-1,-3,-7,-13,-5,4,0,0
1615922409786382,-2,-1,-7,4,-12,1,-3,-2
1615922409786382,-1,2,11,1,-1,-9,-3,0
1615922409803337,0,1,-17,-20,-5,0,-2,-2
1615922409803337,-1,0,8,-2,-2,0,-2,-2
1615922409804335,1,-3,-4,1,-17,-4,0,-1
1615922409804335,-2,-5,-22,-6,-12,0,0,0
1615922409817299,-2,-3,8,-3,-6,-5,-2,1
1615922409817299,-2,-1,-12,-8,9,1,-1,-3
1615922409824281,-2,-2,-7,-1,-8,-4,-3,-1
1615922409824281,0,1,5,2,29,0,3,2
1615922409840237,-2,-3,-9,-1,-4,8,-2,-4
1615922409840237,-1,-2,-4,7,3,-20,-3,2
1615922409846222,0,-4,-11,-17,-11,4,2,-1
1615922409846222,-2,-2,-6,-9,-10,1,-1,0
1615922409870158,1,5,26,29,6,0,1,-2
1615922409870158,-1,-1,-1,-4,3,7,0,-1
1615922409873150,-1,-3,-4,-4,3,4,-1,-1
1615922409873150,0,-3,-7,-7,-11,-3,0,1
1615922409877139,-1,-3,-15,-28,-9,-8,-1,-2
1615922409877139,-1,-2,4,19,-1,6,2,0
1615922409891103,-1,1,1,-1,4,2,2,1
1615922409891103,-2,1,9,19,0,-1,-1,-2
1615922409900078,-3,-5,-17,-14,-7,0,-2,-1
1615922409900078,-4,-4,-3,11,5,4,2,-2
1615922409907061,-2,-4,-14,-13,10,8,-1,-2
1615922409907061,2,5,26,21,-7,1,-1,4
1615922409923037,-1,1,5,1,6,-2,-3,-1
1615922409923037,0,-6,-21,1,27,3,-2,-2
1615922409925034,1,1,-1,-3,-28,3,2,0
1615922409925034,-2,-2,-12,-11,-8,3,-1,-3
1615922409937003,-1,3,31,-2,3,-5,-2,-2
1615922409937003,0,3,16,8,-6,3,0,1
1615922409943963,-3,-4,-3,0,16,1,-2,-2
1615922409943963,0,1,6,-3,-12,-1,2,0
1615922409959919,-3,-4,-17,-2,-19,-10,-2,-2
1615922409959919,2,6,16,-12,-4,8,-2,0
1615922409966900,0,-2,8,12,-8,-8,-2,0
1615922409966900,3,3,6,-1,33,5,2,1
1615922409983855,-3,-6,-38,-5,-22,-17,-3,-1
1615922409983855,-3,2,1,-16,-22,-5,-2,-3
1615922409984852,1,-1,7,7,-4,-9,-2,-2
1615922409984852,1,-3,-1,-4,15,-1,-1,1
1615922409996824,-1,-1,5,1,-41,14,-1,0
1615922409996824,-2,-4,-4,-9,5,-1,-1,-2
1615922410005798,0,1,-2,3,-12,-1,0,-1
1615922410005798,-2,-5,-2,-8,-18,-1,0,-2
1615922410019787,3,8,36,26,15,9,2,2
1615922410019787,-4,-5,-9,-8,-17,-12,-2,-3
1615922410026764,1,6,14,7,9,0,0,1
1615922410026764,-2,-3,-5,-5,8,1,-1,-2
1615922410042721,-2,-3,-17,7,10,-1,0,-1
1615922410042721,0,-2,-5,-7,4,4,0,-4
1615922410044692,0,0,-3,-13,-1,-7,0,0
1615922410044692,-2,-4,-15,17,-5,-7,-3,-2
1615922410056688,-1,-2,11,-3,10,2,0,0
1615922410056688,-6,-3,-8,-3,-18,-4,-3,0
1615922410066660,7,0,-7,10,-9,-6,0,1
1615922410066660,-17,-2,-1,-17,-5,7,-2,-3
1615922410079619,-1,-2,5,-6,-11,-31,-4,-2
1615922410079619,1,-1,-12,16,5,9,2,0
1615922410086581,-2,0,2,-11,-2,-1,-1,-1
1615922410086581,4,2,15,17,-11,0,0,-1
1615922410102536,-1,-1,-10,-11,12,4,-1,-1
1615922410102536,-1,-1,-4,-18,12,2,1,-1
1615922410104531,-1,1,11,12,-16,-7,-1,0
1615922410104531,0,-3,-12,-5,6,-2,-1,-1
1615922410116499,-2,-2,-7,22,8,5,-3,1
1615922410116499,2,-3,-11,-11,-8,-8,-2,0
1615922410125475,-2,0,-1,7,8,4,1,-2
1615922410125475,-1,0,5,-9,7,-3,-1,-2
1615922410139438,2,-6,-13,-7,-2,0,1,-1
1615922410139438,-1,-1,-8,5,19,11,0,0
1615922410146419,-5,-2,24,11,26,-18,-3,-2
1615922410146419,-1,-3,-17,-20,-27,-6,1,-3
1615922410163526,1,1,0,-7,-34,-4,-1,-1
1615922410163526,3,2,14,15,0,2,1,1
1615922410164500,-1,-1,0,-2,-18,3,0,0
1615922410164500,1,-1,-1,-6,12,-4,-2,1
1615922410177490,-1,-1,-3,-8,9,8,1,-1
1615922410177490,1,5,28,23,-3,-1,1,2
1615922410185443,-2,-5,-28,-11,-22,1,-2,-1
1615922410185443,-2,-4,-10,0,4,-4,-2,-1
1615922410199406,-3,-3,-7,-7,-4,6,0,0
1615922410199406,-1,-6,-10,-7,-8,-5,-4,-3
1615922410206487,0,4,22,-4,15,2,2,-1
1615922410206487,1,0,3,19,-2,-2,-1,1
1615922410223342,-1,0,6,-12,8,2,0,-2
1615922410223342,-3,-1,-2,9,28,17,2,-1
1615922410224339,0,0,-16,-9,2,-1,0,1
1615922410224339,2,3,24,1,-28,-9,-2,-1
1615922410236308,-1,-1,1,3,31,8,0,-1
1615922410236308,2,4,20,14,-7,-3,-2,-1
1615922410245284,-1,-3,-10,-10,6,3,-1,1
1615922410245284,1,0,-2,2,4,3,0,0
1615922410260373,0,-2,-10,3,8,-2,-1,-2
1615922410260373,-1,2,-3,-22,-17,-9,-3,-2
1615922410266358,-3,-2,-2,5,1,4,-2,-2
1615922410266358,1,-3,-10,-11,-13,-6,-2,1
1615922410283336,-2,-4,-4,-3,5,0,0,-2
1615922410283336,0,-4,-18,14,3,-4,-2,1
1615922410284310,1,4,23,11,14,-2,0,0
1615922410284310,-2,-1,-18,-19,6,7,0,-1
1615922410296387,0,1,-8,6,-5,6,-1,0
1615922410296387,-3,-2,-6,-8,-6,-18,-1,-4
1615922410305362,-4,-4,-4,-6,-4,3,-1,-3
1615922410305362,0,-1,-14,1,12,3,0,-1
1615922410320213,0,2,9,-3,15,-6,-2,0
1615922410320213,0,1,-3,-1,-13,2,-1,1
1615922410326202,-2,-4,-15,-7,4,4,-1,-1
1615922410326202,-1,-4,1,-2,-11,0,-1,-3
1615922410342298,0,4,-16,-3,-6,-11,-2,-1
1615922410342298,-1,-3,-9,-26,-13,3,0,2
1615922410349280,-1,-4,0,-2,-13,-6,-2,-3
1615922410349280,1,-3,-5,12,19,4,0,0
1615922410356345,-1,0,-7,-12,-5,-3,-1,-1
1615922410356345,-1,-4,3,-8,-2,-1,-1,-4
1615922410372193,1,-1,3,7,-1,3,0,0
1615922410372193,-2,-3,-6,-7,-23,-17,-3,-2
1615922410380173,1,-1,6,-15,14,6,0,0
1615922410380173,0,3,24,22,-14,-23,-3,-2
1615922410386157,-2,-4,-10,0,3,-1,-2,-3
1615922410386157,0,-3,4,1,1,2,1,0
1615922410402138,0,2,-7,7,25,1,-1,0
1615922410402138,1,0,31,-3,-68,1,-1,0
1615922410409125,-1,0,6,-1,19,3,-1,-1
1615922410409125,-2,1,1,8,2,-6,-1,-1
1615922410425072,0,-4,-10,3,-10,-5,0,0
1615922410425072,0,0,-8,-15,-8,3,2,0
1615922410427047,0,-1,8,5,-9,-6,-3,-1
1615922410427047,-1,1,10,0,18,5,-1,-2
1615922410447992,-1,-4,0,17,-11,-4,1,-3
1615922410447992,-3,-5,-12,-10,27,1,-2,-3
1615922410449986,0,1,-5,-8,-12,-2,-2,1
1615922410449986,0,-1,-7,1,9,12,1,0
1615922410462062,-2,1,16,-8,-25,-30,-4,0
1615922410462062,-1,0,0,6,17,2,-1,0
1615922410468935,-2,-5,-5,10,5,-1,-1,-1
1615922410468935,1,4,21,-8,3,4,-1,0
1615922410476914,-2,-3,-1,1,-38,-5,-3,-1
1615922410476914,-2,-2,-13,-10,42,5,-1,-1
1615922410485890,0,1,7,13,-7,-6,0,0
1615922410485890,-1,2,12,20,-5,-6,-1,-2
1615922410499852,-2,-2,-6,-11,-12,4,0,0
1615922410499852,-1,-7,-10,-3,19,-1,-1,-2
1615922410506834,-2,3,-4,-4,-6,-2,-2,-2
1615922410506834,0,-4,-9,-6,-2,2,1,2
1615922410522833,0,-2,1,-10,4,0,-4,-2
1615922410522833,-2,1,-5,-3,-5,7,0,-1
1615922410528934,-1,0,-11,0,11,5,0,1
1615922410528934,-2,-2,-2,-1,9,13,0,0
1615922410545876,-1,-2,0,-5,2,-6,-1,-2
1615922410545876,1,4,20,15,-10,-10,-1,-1
1615922410546850,-2,-5,-18,-17,1,1,-1,-3
1615922410546850,0,2,1,11,-10,-3,-2,0
1615922410559838,-1,-4,-11,-5,8,7,1,1
1615922410559838,-1,-2,0,7,-22,-2,-3,0
1615922410566822,-3,-1,-1,-10,28,-2,0,-2
1615922410566822,-1,3,27,3,6,-12,1,-1
1615922410582753,-1,0,2,9,4,6,-1,0
1615922410582753,0,1,-7,-14,-8,-7,-2,-1
1615922410588767,2,-2,4,5,-4,-3,-1,-1
1615922410588767,-1,-4,-15,-15,-8,-3,-2,-1
1615922410605730,-1,2,20,5,-5,-2,-1,0
1615922410605730,-5,-3,-16,-3,12,3,0,-1
1615922410606691,-2,-2,2,19,-21,-3,-1,-2
1615922410606691,-1,-4,-13,0,7,1,0,0
1615922410619656,-1,-3,13,5,-9,-7,-1,-3
1615922410619656,1,-2,-10,2,0,3,-2,0
1615922410626660,-2,-3,-6,-13,6,4,1,0
1615922410626660,-3,-2,4,0,-22,-21,-3,-2
1615922410641596,-1,-3,-8,10,17,2,-1,-2
1615922410641596,0,3,-6,-2,-12,0,3,3
1615922410650572,-3,-2,-7,-15,-60,-5,-2,-2
1615922410650572,-2,-2,6,-14,54,12,-2,-2
1615922410665769,1,1,7,35,-4,1,2,2
1615922410665769,-3,-5,-12,-12,-4,-17,-3,-1
1615922410666791,2,7,19,-7,10,8,1,1
1615922410666791,1,1,5,-4,-40,-9,-2,0
1615922410679756,-2,4,6,-12,21,2,-3,-1
1615922410679756,-5,-10,-17,0,5,-1,-1,-4
1615922410686712,0,0,-6,-3,6,3,1,2
1615922410686712,-1,-1,-15,11,-38,-3,-1,-3
1615922410702669,-1,-3,-13,-19,3,-1,-1,0
1615922410702669,-1,1,26,21,10,6,-1,-1
1615922410708654,-1,-6,-13,-9,-6,-4,-3,-2
1615922410708654,2,0,-7,-2,5,-1,-2,0
1615922410725608,-2,-3,-24,-1,-13,5,-1,-2
1615922410725608,4,7,20,2,3,5,1,4
1615922410727603,0,-4,-13,-10,7,-3,-2,-2
1615922410727603,0,-2,4,5,21,4,1,1
1615922410739576,-2,-2,-5,-3,20,-2,0,-2
1615922410739576,-2,-3,7,0,6,2,-2,-3
1615922410746556,-2,-2,-2,-1,20,1,-1,-1
1615922410746556,-2,-2,-9,-7,-17,-3,-2,-3
1615922410762510,1,5,24,7,1,6,2,2
1615922410762510,-5,-5,-12,-9,5,-20,-3,-3
1615922410769515,-2,-2,7,26,1,1,0,-3
1615922410769515,-1,-5,-12,-10,-5,-5,-1,-2
1615922410785448,3,3,3,-20,-24,1,-3,1
1615922410785448,-1,-2,-2,5,33,10,-1,-1
1615922410787443,1,1,15,-3,-22,-7,0,-1
1615922410787443,-2,0,-10,-7,5,-1,-3,-3
1615922410800408,1,-3,-11,6,-14,-2,1,2
1615922410800408,0,4,3,-5,1,-1,0,0
1615922410806397,-3,-3,-24,-30,9,-3,-3,-1
1615922410806397,0,3,28,40,2,9,2,0
1615922410822351,-3,-5,-24,-11,13,-5,-3,-3
1615922410822351,0,1,-6,9,4,6,0,0
1615922410829359,0,-1,3,-5,-3,-1,-1,2
1615922410829359,-1,-4,-28,-8,-10,0,0,-1
1615922410845315,0,-1,19,10,16,1,-1,-2
1615922410845315,2,0,-6,-4,-16,4,3,3
1615922410847283,-1,1,16,3,-28,-30,-5,-2
1615922410847283,-2,-6,-13,-1,10,6,-1,1
1615922410860365,0,1,15,2,-3,-1,0,-2
1615922410860365,0,-2,-6,-9,2,11,-2,0
1615922410866232,-2,0,20,22,-13,1,1,-1
1615922410866232,-2,2,-6,-12,-34,-10,-2,0
1615922410882190,-2,-2,4,3,13,-4,0,0
1615922410882190,0,0,-1,-6,-11,-6,-1,-3
1615922410889176,0,-1,-4,0,29,9,-1,1
1615922410889176,0,-1,18,10,-46,-5,-2,-2
1615922410905179,-3,-2,-16,-7,-8,2,1,-1
1615922410905179,-1,-4,-1,1,2,-2,0,-1
1615922410907145,0,1,-7,-5,9,10,1,2
1615922410907145,2,5,13,14,14,0,-1,1
1615922410920108,-3,-6,-18,-5,-5,1,0,-1
1615922410920108,1,-2,6,-14,-2,4,-1,1
1615922410927090,-3,-1,14,24,-13,-17,-3,-3
1615922410927090,-2,-4,-10,-7,17,-2,-1,-1
1615922410942050,1,3,3,1,-15,-2,-1,0
1615922410942050,-5,-2,-6,-8,-1,5,0,-2
1615922410949031,0,-1,-11,-2,11,7,1,1
1615922410949031,-2,-4,11,12,9,-1,-2,-2
1615922410964989,-3,-4,-3,6,-4,-3,-1,-4
1615922410964989,-4,-2,-13,-6,5,-6,-3,-3
1615922410966982,-2,-4,-19,-5,7,-1,-2,-2
1615922410966982,2,6,26,5,16,-5,0,1
1615922410987951,2,-4,-10,-10,1,2,-1,1
1615922410987951,2,-1,11,14,-5,-2,1,0
1615922410989922,-1,-5,-23,-23,-11,1,-1,-5
1615922410989922,-2,-6,-8,9,-2,8,1,0
1615922411002887,1,5,6,-3,38,5,0,0
1615922411002887,-2,-1,5,1,-21,-10,-3,-2
1615922411008871,3,3,11,12,-1,4,0,3
1615922411008871,-1,-3,-17,-20,4,-3,0,-3
1615922411025868,-3,-2,-4,-5,-17,1,1,0
1615922411025868,-4,-5,-8,-3,4,0,-2,-4
1615922411026823,0,4,4,7,-4,3,-1,-1
1615922411026823,-3,-4,-6,-7,-8,-4,-1,0
1615922411038797,1,-4,10,9,12,1,-2,-1
1615922411038797,-3,-4,-22,-32,-2,-4,-1,-1
1615922411047768,-1,4,25,22,-7,-1,-2,-2
1615922411047768,2,-2,-29,-17,9,1,-1,0
1615922411062727,0,-1,3,-10,-13,-5,0,1
1615922411062727,0,-1,-4,-7,-5,5,2,2
1615922411068734,-2,-4,10,17,11,1,0,-1
1615922411068734,-1,-1,1,-13,21,6,-3,-4
1615922411085712,1,2,6,4,-21,-17,-1,1
1615922411085712,0,-3,-9,16,0,-5,-2,-4
1615922411086709,0,2,5,-13,2,3,1,0
1615922411086709,-2,1,-6,-7,-2,1,1,-2
1615922411099477,-4,-2,5,12,0,2,-1,-1
1615922411099477,-1,0,9,7,6,-3,0,-1
1615922411108427,1,-1,-15,-18,-8,-8,0,-1
1615922411108427,0,0,4,-5,3,-1,0,0
1615922411122390,0,-2,-11,-13,-5,1,-2,-2
1615922411122390,2,4,-4,8,-3,-2,0,3
1615922411129376,-1,-4,-3,-6,-3,1,-2,-2
1615922411129376,-1,-1,11,1,-4,-2,-1,-2
1615922411145333,1,-2,0,0,-5,1,1,1
1615922411145333,-1,1,6,3,1,3,-2,-2
1615922411147324,-2,-3,9,-9,-7,-3,-1,-3
1615922411147324,-2,0,-1,6,17,0,1,-2
1615922411159403,1,6,24,7,-16,-5,-1,0
1615922411159403,0,-1,7,11,30,5,-2,0
1615922411168268,-1,-5,-20,-4,1,0,-2,0
1615922411168268,-2,1,4,-23,-15,-10,-2,-3
1615922411183228,-2,-5,2,8,5,7,0,-2
1615922411183228,-2,-3,-1,-4,-14,6,-3,-2
1615922411189217,1,8,23,-6,-7,-9,0,1
1615922411189217,-2,-5,-6,6,24,4,-1,-2
1615922411205270,-1,-4,-8,-8,28,9,-1,-2
1615922411205270,0,1,-1,8,-8,-4,0,-1
1615922411205270,-3,-6,-6,4,-8,0,-2,-1
1615922411205270,2,5,11,11,-15,-2,-2,2
1615922411227114,-4,-1,-9,-11,-52,-6,-3,-6
1615922411227114,3,0,7,3,23,-2,-1,2
1615922411228108,-1,-3,-10,-8,17,2,-1,-2
1615922411228108,-2,-3,-26,-3,-39,-6,0,1
1615922411243068,-2,-2,8,5,-1,-2,-2,-4
1615922411243068,-2,-1,-4,-4,1,9,1,-1
1615922411249053,-2,-3,-9,-5,13,0,0,-1
1615922411249053,1,1,20,5,-3,2,-1,3
1615922411264012,0,-1,-33,-8,9,-1,-1,2
1615922411264012,-3,0,19,13,-23,-2,-2,-2
1615922411271991,0,8,13,-1,4,-2,-1,0
1615922411271991,-1,-5,-14,-12,2,-3,-1,-2
1615922411286950,-1,1,10,10,3,-9,-1,-3
1615922411286950,1,-3,-5,5,-3,-3,1,3
1615922411287947,-4,-6,-14,-4,-14,-1,-1,-3
1615922411287947,-2,0,1,-5,9,-3,-3,-1
1615922411303643,-1,1,0,-4,-22,0,-2,-1
1615922411303643,1,2,-1,-10,-5,0,1,-1
1615922411309627,-1,-4,0,4,-51,-18,-3,-2
1615922411309627,1,2,14,7,0,10,2,0
1615922411324587,0,-5,-12,-7,-1,-22,-2,-1
1615922411324587,0,-1,-3,-8,-21,-5,-2,-4
1615922411331591,1,4,8,0,2,11,0,1
1615922411331591,-1,-1,1,-6,8,-2,-2,-3
1615922411354583,0,2,7,11,4,1,1,-1
1615922411354583,-2,-2,-10,-15,-2,-8,0,-2
1615922411355622,-2,-3,9,24,16,2,-1,-1
1615922411355622,1,-2,-16,-19,-9,-3,-1,-1
1615922411363554,-2,1,2,-10,15,6,-3,1
1615922411363554,0,4,13,3,-3,-2,-2,-1
1615922411369538,-2,-4,7,5,24,6,-1,-2
1615922411369538,1,1,-5,10,-6,4,0,1
1615922411384502,0,3,1,-7,-7,3,-1,-2
1615922411384502,-2,-2,13,22,-20,-4,-1,-3
1615922411391484,1,0,-10,-17,17,-6,-2,2
1615922411391484,0,-1,8,-4,14,3,0,0
1615922411407437,-3,-9,-16,-2,11,-1,-2,-1
1615922411407437,1,1,-3,-13,17,10,-1,-1
1615922411408434,1,-1,-1,17,-10,-12,0,0
1615922411408434,-1,-4,-13,-1,-1,-5,-3,0
1615922411423394,-1,1,20,-13,1,2,-1,-2
1615922411423394,-2,-1,1,15,6,0,0,0
1615922411429382,0,-2,-19,-24,-3,3,-3,-4
1615922411429382,0,-1,6,6,-3,-6,0,-1
1615922411444342,1,0,5,6,-15,5,0,1
1615922411444342,-2,-5,-5,-5,21,-7,-1,1
1615922411451325,-1,4,16,0,-11,-3,-2,-1
1615922411451325,-3,-3,-7,15,-27,-2,1,-1
1615922411467557,-1,-4,-4,9,-15,2,-1,1
1615922411467557,-5,-6,-6,-6,-1,-1,-2,-2
1615922411468555,-1,-1,-5,2,8,-1,-1,1
1615922411468555,0,3,0,-5,14,1,-1,-3
1615922411483492,-2,-3,4,8,31,11,0,0
1615922411483492,-1,-2,-24,-8,-27,-23,-1,-2
1615922411489516,1,-2,7,-8,29,10,2,3
1615922411489516,0,0,16,5,-8,-5,-1,0
1615922411504434,1,-2,-22,-21,10,2,-1,-2
1615922411504434,0,2,-4,1,-6,-1,-2,-2
1615922411511415,-1,0,-5,1,-10,0,0,-2
1615922411511415,-1,1,6,-12,-2,-1,1,0
1615922411529373,-3,-7,-24,-4,5,-7,-2,-2
1615922411529373,1,2,32,7,-9,0,0,0
1615922411529373,0,-1,-28,-6,-7,-1,0,-1
1615922411529373,-5,-6,-11,0,19,3,-1,-2
1615922411543331,0,-2,-10,-8,-14,-5,-1,-1
1615922411543331,1,2,9,4,3,3,-2,-2
1615922411549315,-2,-2,3,4,0,-1,-2,-1
1615922411549315,-1,0,-7,-1,11,-1,0,-1
1615922411564275,-2,-1,-1,6,29,2,1,0
1615922411564275,0,1,6,3,-15,7,2,1
1615922411571256,-2,-1,14,8,31,-3,-3,-4
1615922411571256,-1,0,-15,2,0,9,0,-2
1615922411587213,1,1,7,0,-11,-18,-4,-1
1615922411587213,1,-1,-11,-6,2,5,1,2
1615922411588210,-1,-4,-10,-12,-11,0,-2,-3
1615922411588210,-1,0,-2,3,-7,-5,-2,0
1615922411603301,-2,-3,-12,-19,-1,7,-1,-3
1615922411603301,2,3,21,23,23,1,-1,0
1615922411609284,-2,-4,-20,-5,-11,0,-1,-2
1615922411609284,-2,-2,10,-9,-3,-6,-2,-3
1615922411624245,-1,2,28,24,-5,-1,0,-1
1615922411624245,-5,-4,-9,-9,5,1,-2,-1
1615922411631226,0,-1,0,-10,-6,2,1,4
1615922411631226,0,2,17,13,-6,1,-1,-2
1615922411648308,0,2,5,-2,-38,-25,-3,-1
1615922411648308,-1,1,3,-1,-12,0,0,0
1615922411648308,-2,-2,20,19,11,2,0,-4
1615922411648308,-1,-2,7,-11,-5,-7,0,4
1615922411663397,1,2,-15,1,2,5,-1,1
1615922411663397,1,-2,-1,-4,-9,-7,-2,-1
1615922411669404,-4,-3,-13,-20,-23,-4,-1,-3
1615922411669404,2,4,1,6,7,5,0,3
1615922411684365,-4,-3,12,10,25,3,-2,0
1615922411684365,-3,-1,-14,-6,-37,-4,-3,0
1615922411691345,2,3,16,11,-6,0,0,0
1615922411691345,-3,-5,-18,-20,-7,-2,-4,-4
1615922411707279,-2,-1,-1,5,8,4,1,-1
1615922411707279,-1,-2,-8,-7,2,3,1,-1
1615922411708276,0,-1,-10,-5,19,-2,-2,0
1615922411708276,-2,-4,-6,-1,-14,-1,-2,-1
1615922411723236,2,5,9,-1,-4,9,1,0
1615922411723236,-3,-5,-17,-12,0,-8,-3,-2
1615922411729256,-1,1,-5,-1,-23,-6,-1,0
1615922411729256,3,-1,-12,4,21,-1,-1,2
1615922411744265,-1,-1,-5,-17,-12,3,-2,-3
1615922411744265,0,-2,3,-4,14,3,0,-1
1615922411751252,-2,-3,-14,-6,21,3,0,-3
1615922411751252,0,1,7,-4,4,-8,-2,-1
1615922411767206,-2,-3,11,10,-10,-4,-2,1
1615922411767206,0,0,-8,6,1,-1,-1,-2
1615922411768204,1,0,-3,-14,-3,-2,0,0
1615922411768204,-2,1,15,10,-3,7,-2,-3
1615922411783165,-1,-2,-6,-4,-1,-12,0,0
1615922411783165,-4,-6,-21,-11,26,2,-2,-3
1615922411789174,0,1,18,15,-21,1,0,0
1615922411789174,-1,4,19,0,-29,-3,0,-1
1615922411804170,-1,0,4,2,3,-19,-3,-2
1615922411804170,-1,-5,-5,-4,-57,-4,-1,-2
1615922411812233,1,3,1,-2,2,-3,-2,-2
1615922411812233,0,-4,-14,-4,1,-1,-1,1
1615922411827110,1,0,-6,-1,-4,2,1,1
1615922411827110,0,3,4,-3,15,2,1,-1
1615922411834065,-1,-6,-11,-8,-28,-7,-2,2
1615922411834065,0,3,25,22,21,2,-1,0
1615922411843042,-2,-1,-5,-10,-22,3,-2,-2
1615922411843042,2,0,-6,4,7,10,1,2
1615922411849050,-3,-3,0,-11,-1,-4,-3,-3
1615922411849050,0,2,-7,15,44,-2,0,0
1615922411863985,-1,-2,5,19,-15,3,0,-1
1615922411863985,-2,-2,2,-8,16,2,-2,-2
1615922411871985,2,0,-6,3,-14,0,1,0
1615922411871985,-2,-4,-8,-9,-19,-5,-2,-4
1615922411886923,1,-3,-4,-11,17,19,1,0
1615922411886923,-1,-3,2,12,-20,-12,-3,-1
1615922411887921,0,1,8,-3,5,5,1,1
1615922411887921,-3,-2,10,19,-26,-3,-1,-1
1615922411902881,-1,0,-9,-14,28,13,0,-2
1615922411902881,1,2,8,8,-26,-9,0,1
1615922411908865,-2,-2,-10,2,0,2,1,-1
1615922411908865,-2,-4,-11,-18,-16,4,2,0
1615922411923847,-3,-5,-6,2,6,-6,-4,-4
1615922411923847,2,10,15,0,17,4,2,3
1615922411931978,-2,-3,3,2,8,-6,-1,0
1615922411931978,-1,-2,-6,-14,1,0,1,0
1615922411946914,-1,1,2,2,-8,-4,-2,-1
1615922411946914,-4,-3,-6,-8,10,-1,-1,-2
1615922411947911,1,0,6,6,1,5,1,-1
1615922411947911,1,3,-10,-11,2,-4,-1,-1
