timestamp,emg1,emg2,emg3,emg4,emg5,emg6,emg7,emg8
1615922447498158,-2,-1,14,4,9,-7,-4,-4
1615922447498158,0,-2,8,9,3,3,-1,0
1615922447506136,-1,-1,-9,-4,-9,0,-2,-3
1615922447506136,-1,0,9,7,-8,-2,-1,0
1615922447520099,1,-1,-6,-7,7,2,2,1
1615922447520099,-2,-1,-7,-11,-12,-2,1,-1
1615922447529074,-1,-1,9,8,-4,1,2,-1
1615922447529074,-3,-3,-16,1,7,-5,-2,-3
1615922447544034,2,0,-12,-17,-7,-2,0,1
1615922447544034,-3,0,19,17,-24,-1,-2,-1
1615922447545032,2,6,32,5,28,13,2,2
1615922447545032,-1,-2,-16,-3,-7,0,-2,-1
1615922447558521,-3,-4,-10,-6,-15,-9,-2,-1
1615922447558521,3,2,10,2,4,2,1,0
1615922447566497,-1,-2,-13,-18,-11,-1,-3,-2
1615922447566497,1,2,20,23,4,2,-2,2
1615922447580459,-2,-2,2,-2,-2,-5,-1,-3
1615922447580459,-5,-4,-16,-16,-6,-2,-2,-3
1615922447588438,4,1,14,8,8,-5,0,4
1615922447588438,-2,-4,0,-6,-23,-7,-1,-1
1615922447604466,-2,0,-24,-4,5,0,-2,1
1615922447604466,1,5,13,9,20,1,1,-1
1615922447605415,-2,-4,-19,-10,-20,-5,-3,-4
1615922447605415,1,-1,-20,-10,5,-6,-2,-1
1615922447618406,-1,-5,8,8,21,4,0,0
1615922447618406,1,1,-23,-16,-14,-11,1,2
1615922447626358,-3,-2,-4,6,13,0,-2,-3
1615922447626358,-1,-5,-11,0,-8,-4,-1,-2
1615922447641446,0,0,2,-16,-4,10,2,-1
1615922447641446,-3,-1,-7,11,1,-14,-4,-5
1615922447648430,0,4,16,13,-1,-3,0,0
1615922447648430,-4,-2,-10,-7,23,0,-3,-3
1615922447664387,-2,-1,-11,-6,33,13,2,-2
1615922447664387,0,0,24,6,-21,0,-1,2
1615922447665409,-2,1,-10,-8,-18,-4,-1,-1
1615922447665409,-1,0,-7,-7,46,6,-2,-2
1615922447678355,1,0,8,11,1,-7,-2,-1
1615922447678355,0,-1,5,2,12,9,0,3
1615922447686366,0,-4,-19,-9,-3,-5,-2,-3
1615922447686366,1,4,21,3,-6,2,3,2
1615922447717272,0,-2,6,0,-19,-4,-2,-1
1615922447717272,-3,-3,-16,-5,6,-4,-3,-2
1615922447717272,2,-3,-1,-1,-8,3,0,1
1615922447717272,-1,-3,-10,-11,-24,-13,-3,-1
1615922447724228,0,4,25,13,-11,-4,0,2
1615922447724228,-1,-5,-18,-10,9,4,1,-1
1615922447725225,-2,1,19,2,4,10,-1,0
1615922447725225,0,0,-9,3,15,-15,-2,-1
1615922447738190,-2,-2,10,12,1,-1,-1,-2
1615922447738190,0,1,-15,-9,0,7,0,1
1615922447746708,-3,-3,11,-3,4,-3,-3,-3
1615922447746708,0,-5,-18,-13,-7,1,-1,0
1615922447760700,0,4,26,22,3,2,1,2
1615922447760700,0,-3,-5,-1,22,1,0,-2
1615922447768679,0,0,-14,-11,-1,3,1,1
1615922447768679,-3,-1,-4,-1,-15,-2,-3,-2
1615922447784637,-1,-1,-6,-12,-7,-11,-3,-1
1615922447784637,0,-2,4,1,-4,2,-1,0
1615922447785607,-2,-3,-9,-9,33,-1,-1,-4
1615922447785607,-3,-1,25,9,-45,-2,-1,-2
1615922447797574,3,3,2,8,-6,2,1,-2
1615922447797574,0,1,11,6,2,0,0,1
1615922447806550,-1,-2,-18,-12,-6,-6,0,1
1615922447806550,1,3,7,8,29,6,-1,-1
1615922447820513,-2,-3,6,-10,-12,-4,-4,-3
1615922447820513,-3,-1,-9,-9,-1,8,-1,-1
1615922447835498,-3,-4,2,12,-5,-17,-2,-3
1615922447835498,-1,-1,-7,-12,-19,1,0,-1
1615922447843451,-3,-3,-14,-6,-22,1,0,0
1615922447843451,1,-4,-14,-4,18,-1,-1,0
1615922447852448,1,3,4,-3,12,0,-3,-2
1615922447852448,-2,-7,-11,0,21,3,0,-2
1615922447858429,1,4,-1,-2,-11,-4,0,2
1615922447858429,-3,-4,0,-1,-37,-9,-3,-6
1615922447867405,-2,-6,-15,-8,-6,-1,0,3
1615922447867405,0,1,23,11,6,-1,-3,0
1615922447880373,-3,1,1,1,-67,-1,-1,-4
1615922447880373,-1,-3,-18,-19,18,3,-1,0
1615922447889472,0,3,32,25,-18,-2,1,-2
1615922447889472,1,4,-4,-6,3,-2,0,1
1615922447903439,-2,-3,-10,-5,17,6,-1,2
1615922447903439,-2,1,7,2,-9,-17,-4,-3
1615922447920546,-1,-4,4,-6,-11,7,-2,-2
1615922447920546,1,1,-4,3,25,0,1,2
1615922447920546,-2,-4,22,11,-13,-3,0,-3
1615922447920546,0,2,15,-1,4,5,2,0
1615922447926507,0,0,-13,5,-5,5,-1,0
1615922447926507,-4,-5,-5,-13,14,2,-1,-1
1615922447940469,2,1,-4,-2,23,0,2,1
1615922447940469,-1,-1,17,-5,-6,0,-2,-1
1615922447949445,0,-3,-16,-1,-19,-9,-2,-1
1615922447949445,1,6,33,19,24,-3,-2,-1
1615922447963407,-4,-5,-21,-20,2,-1,-3,-2
1615922447963407,1,1,16,11,-59,2,1,2
1615922447972383,-7,-1,-7,-6,26,0,0,-7
1615922447972383,-2,-3,-21,-11,-23,1,2,-4
1615922447994324,-1,0,10,11,18,-12,-4,-1
1615922447994324,-1,0,9,10,16,2,-1,0
1615922447996319,3,3,1,-7,-2,1,0,2
1615922447996319,-2,-3,-3,5,-17,0,-2,-1
1615922448000335,1,-3,-14,-16,40,10,0,1
1615922448000335,2,-1,-1,5,-49,-3,0,1
1615922448009285,0,-4,3,2,-7,-2,-1,-1
1615922448009285,0,4,3,0,16,-11,-2,0
1615922448023293,-2,-3,-27,-12,-9,1,-1,-2
1615922448023293,-3,0,5,9,18,-6,-2,0
1615922448032269,1,0,-5,-6,-5,-1,-2,1
1615922448032269,-1,-4,1,-5,-19,2,-2,-2
1615922448038253,-1,-1,4,7,3,-3,-1,-1
1615922448038253,0,-2,-1,1,-2,-7,-1,0
1615922448047228,-2,-5,-11,-3,-30,0,-1,-2
1615922448047228,-1,1,-7,-7,6,2,1,0
1615922448060194,1,1,16,3,-1,-2,1,-1
1615922448060194,0,-3,-18,-7,-8,-4,-1,-2
1615922448070167,-2,-3,-2,1,43,5,-1,0
1615922448070167,-1,-3,10,2,-20,1,-2,-2
1615922448083231,0,4,-2,-5,-15,-2,2,1
1615922448083231,0,-1,-3,-6,30,12,2,-1
1615922448092109,-2,3,4,-1,-33,-26,-4,-2
1615922448092109,-1,-3,1,2,-43,-3,-2,-1
1615922448098092,-1,-2,-3,-5,57,-2,-2,-2
1615922448098092,1,0,-1,-7,14,0,1,2
1615922448107069,1,0,5,8,6,4,0,1
1615922448107069,-2,-6,-13,-3,3,1,0,-1
1615922448121030,0,0,-5,-7,-45,-1,-1,-1
1615922448121030,-3,-1,-23,-9,31,3,1,-2
1615922448130008,-1,0,12,0,-53,-5,-2,-4
1615922448130008,0,2,13,14,-3,-5,1,1
1615922448142972,-2,-6,-13,-2,30,8,1,-3
1615922448142972,-1,-1,-7,-8,12,5,-1,-1
1615922448151948,-2,1,12,0,4,-3,-3,1
1615922448151948,-2,-2,-10,-1,-1,-5,-3,-2
1615922448157957,-1,-2,12,0,-22,-5,-3,1
1615922448157957,-1,-3,1,3,3,1,-2,-1
1615922448166908,0,-1,-17,-13,24,1,0,-2
1615922448166908,-1,3,18,13,15,3,1,-3
1615922448181089,1,-2,-6,5,3,-11,-2,1
1615922448181089,-1,0,2,-1,6,2,0,1
1615922448189969,-3,-1,-7,-3,12,6,2,1
1615922448189969,-1,-3,-20,-5,14,-1,0,2
1615922448203034,-2,-3,-7,-6,-15,-1,-1,-2
1615922448203034,0,2,23,11,-2,-2,-1,-2
1615922448211910,2,3,28,8,13,4,2,3
1615922448211910,-3,-5,-18,-13,14,8,1,-4
1615922448217894,1,1,5,6,-83,-5,1,0
1615922448217894,-3,-3,-2,11,41,-1,-2,-3
1615922448226870,0,0,-14,-4,10,1,2,1
1615922448226870,0,2,16,-3,4,-1,-1,0
1615922448240838,-2,-2,-13,-3,9,0,-4,-1
1615922448240838,-2,-2,-13,-13,-8,-6,-1,-1
1615922448249811,-1,-1,7,8,1,1,-1,-3
1615922448249811,-2,-5,-7,-2,8,-2,0,1
1615922448262774,0,-2,-14,1,-3,-1,0,-1
1615922448262774,-3,1,12,6,-2,2,1,-2
1615922448271750,0,2,-6,-4,16,1,0,0
1615922448271750,-1,-2,-5,-5,-27,-3,-2,-2
1615922448277734,-2,1,21,11,-6,11,-1,-1
1615922448277734,-1,-6,-11,-11,-45,-33,-4,-2
1615922448286710,-1,-2,-4,-6,5,6,-1,-2
1615922448286710,-1,-1,13,9,24,1,-1,-1
1615922448300672,-1,1,5,0,-68,-3,3,2
1615922448300672,0,2,-2,1,-5,2,0,0
1615922448316631,-4,-3,-5,-9,-1,-7,-4,-4
1615922448316631,2,-1,0,7,-3,-3,-1,0
1615922448322614,-2,-3,-9,-8,42,3,-1,-3
1615922448322614,0,1,4,4,-30,4,0,0
1615922448332588,0,0,-5,-5,-24,-8,0,1
1615922448332588,-3,-2,-9,-5,-4,3,0,-2
1615922448338572,1,-2,1,0,20,-6,-1,-1
1615922448338572,2,4,-1,1,-11,2,0,-1
1615922448346550,-2,-1,-2,-4,-6,1,-2,0
1615922448346550,0,2,5,5,-2,-4,-3,-1
1615922448360513,0,0,-5,-8,18,3,0,0
1615922448360513,-5,-4,-7,2,0,5,-1,-4
1615922448370486,0,-1,-4,0,5,-21,-2,0
1615922448370486,-2,-3,-12,-8,-19,-4,0,-1
1615922448391430,-1,-3,-4,6,32,6,-2,0
1615922448391430,0,1,1,-6,-46,4,1,0
1615922448393424,-2,-6,-11,-1,0,2,-3,-3
1615922448393424,2,4,9,7,-10,0,1,0
1615922448398411,-3,-4,-4,-5,32,2,-1,-3
1615922448398411,-1,0,11,-10,10,-5,-2,0
1615922448407405,0,-2,-7,18,-7,8,3,0
1615922448407405,-1,-3,-23,-20,20,0,-1,-1
1615922448420394,0,4,28,14,-26,-1,-1,-1
1615922448420394,1,1,-7,-1,14,2,1,3
1615922448429346,-4,0,7,-3,2,-2,-2,-5
1615922448429346,1,-2,-1,3,7,1,2,4
1615922448443440,-3,-2,-6,-4,-3,-6,-1,-1
1615922448443440,-1,-2,-10,-5,6,0,-1,-2
1615922448452416,2,3,14,1,7,3,1,-1
1615922448452416,0,0,15,13,-1,0,-1,-1
1615922448458400,-1,-1,-7,-9,-5,-6,0,0
1615922448458400,1,-2,-8,-2,-9,4,0,-3
1615922448474357,0,-2,5,0,-2,4,-2,-1
1615922448474357,-1,3,0,-1,-4,-5,-2,-3
1615922448480345,0,-2,-12,-14,11,7,1,2
1615922448480345,-1,3,31,19,-55,-27,-2,0
1615922448489317,-1,-2,-9,-7,-15,3,-2,0
1615922448489317,1,0,-5,-11,23,-1,-2,-3
1615922448503279,1,1,13,13,21,-1,-2,0
1615922448503279,-4,-5,-17,-13,24,11,-2,-5
1615922448518240,0,1,3,9,-2,2,2,1
1615922448518240,-2,-2,-2,-10,-28,-16,-2,0
1615922448527216,-4,-4,-28,-18,10,2,1,-5
1615922448527216,3,4,42,21,12,1,-1,-1
1615922448529211,0,0,-15,-5,0,3,1,0
1615922448529211,-1,-1,-14,-7,25,9,0,0
1615922448549158,-1,0,6,-8,-16,-5,-1,-2
1615922448549158,-1,-2,-15,-3,19,-1,0,0
1615922448551152,0,0,19,8,-11,-4,-1,-2
1615922448551152,-2,0,0,4,13,2,2,-2
1615922448563120,-1,0,-15,-6,-80,-12,-3,-2
1615922448563120,-3,-3,-2,-5,18,2,-3,-3
1615922448572096,0,-2,1,-2,9,16,2,3
1615922448572096,-1,-6,-19,-6,-25,-8,-4,1
1615922448587056,0,2,14,2,24,-10,-3,-2
1615922448587056,-1,-3,4,7,-11,5,-1,-1
1615922448588053,-2,2,9,-2,25,4,-2,-3
1615922448588053,-1,-3,1,-6,-11,3,-1,-1
1615922448601018,-1,-2,-1,-7,-8,-3,-3,-2
1615922448601018,1,4,12,14,12,0,-1,1
1615922448609994,-5,-4,-15,-11,-10,-9,-4,-3
1615922448609994,1,0,-1,-5,-3,0,2,1
1615922448622960,-1,-2,6,13,12,-7,-3,-3
1615922448622960,1,-4,-28,-16,12,4,1,0
1615922448631936,2,6,27,1,-8,-3,0,2
1615922448631936,-3,-3,-4,-2,-7,-5,-2,-1
1615922448646895,-1,-2,13,14,-18,1,1,0
1615922448646895,-1,-2,-20,-11,28,7,-1,-1
1615922448648890,0,-1,-14,-10,9,-2,-1,0
1615922448648890,1,3,12,8,12,-6,-2,-2
1615922448669835,1,2,14,7,29,9,1,0
1615922448669835,-1,-3,8,-2,-4,9,1,0
1615922448670832,-1,-1,-5,-2,-10,-23,-3,-2
1615922448670832,-2,-1,2,1,-10,3,-1,-1
1615922448682799,2,-3,-5,4,28,6,0,1
1615922448682799,-4,-7,-16,-3,-13,-2,1,-4
1615922448691775,2,11,8,2,4,4,-2,-2
1615922448691775,0,0,-6,4,-18,1,-2,-2
1615922448706736,-2,-5,-25,-11,-15,-6,-1,2
1615922448706736,1,0,5,-5,5,-6,-3,1
1615922448708730,-2,-7,-14,2,-14,-3,0,0
1615922448708730,-2,-1,-3,-5,3,1,0,-2
1615922448720698,0,2,7,-4,3,2,0,-1
1615922448720698,-2,-2,-4,-4,41,-2,0,0
1615922448729675,-4,-5,-1,-7,-35,2,0,-3
1615922448729675,1,0,-1,5,21,6,0,0
1615922448751673,1,-1,1,3,8,-1,-1,-1
1615922448751673,-2,-2,2,-13,-1,-1,0,-1
1615922448753667,-2,-1,-4,8,-18,-7,0,-1
1615922448753667,2,3,9,-4,3,2,2,2
1615922448766631,-4,-4,-14,-12,6,5,-2,-3
1615922448766631,1,3,18,13,-32,-1,-2,-1
1615922448768625,0,-2,1,-1,7,-1,-1,1
1615922448768625,-3,-5,-11,-2,-7,-2,-5,-3
1615922448780593,-1,4,7,-1,-11,-3,3,2
1615922448780593,1,1,-7,-5,12,1,-2,-3
1615922448789569,-2,-1,1,4,27,2,-1,-1
1615922448789569,1,0,6,-1,-2,4,1,1
1615922448803614,-1,-4,-9,-6,7,-4,-2,0
1615922448803614,-3,-2,-7,-4,22,-8,-1,0
1615922448812531,-1,-2,15,10,-63,-19,-4,-1
1615922448812531,-3,-1,-2,-6,16,1,-1,-3
1615922448826470,0,6,10,3,-6,1,-1,-1
1615922448826470,-2,-2,-4,7,-7,-5,-2,1
1615922448828464,-2,-4,-36,-20,33,7,-1,0
1615922448828464,-1,0,15,24,-24,-6,-1,0
1615922448840433,-1,-3,-10,-4,17,2,0,-1
1615922448840433,-1,-1,-11,-6,-15,1,1,-1
1615922448849535,0,-2,1,0,19,-12,-2,-1
1615922448849535,-1,-2,-9,-4,-9,-2,-2,-2
1615922448863498,-2,-4,-5,8,12,-1,-2,-2
1615922448863498,-1,-1,11,-3,-18,-3,-2,0
1615922448872474,1,-2,-15,-8,7,7,2,2
1615922448872474,-5,2,9,-5,0,-5,0,-5
1615922448886699,0,3,16,-1,-4,-2,-1,-1
1615922448886699,2,-1,-1,17,14,11,-1,2
1615922448888717,-1,-2,10,-1,-30,-8,0,-2
1615922448888717,1,-2,-16,-9,-38,2,-1,1
1615922448900661,-1,0,15,10,-9,-4,-1,-1
1615922448900661,-1,-3,-16,-12,-5,5,0,-3
1615922448909637,0,1,5,-8,-3,1,-2,-2
1615922448909637,-2,0,28,14,20,-4,0,-2
1615922448922603,3,0,-9,-5,-15,-7,-1,2
1615922448922603,-4,-1,2,-3,-16,-4,-2,0
1615922448932643,-2,1,11,12,26,6,0,-1
1615922448932643,-1,-3,-13,-10,21,3,-1,-2
1615922448946638,0,1,-1,5,-19,-3,0,0
1615922448946638,-3,0,13,0,7,-1,-2,-3
1615922448953524,-3,-3,-1,-3,-3,-21,-4,-4
1615922448953524,0,-3,-11,-1,5,4,0,1
1615922448960501,-1,2,10,0,-3,-1,1,1
1615922448960501,1,1,-20,-3,-19,-8,-3,-2
1615922448969477,-1,-3,-6,-2,7,5,1,0
1615922448969477,-2,0,5,6,-4,-8,-3,-6
1615922448983540,-1,-5,-29,-13,-18,3,0,-3
1615922448983540,-2,0,-4,-5,-13,-2,0,-1
1615922448992417,-1,-2,-6,-4,23,2,-4,0
1615922448992417,1,2,34,9,-8,-3,0,3
1615922449005386,-2,-3,-20,-1,19,6,-1,-1
1615922449005386,-1,0,4,0,12,-4,0,-2
1615922449031448,-2,1,-15,-7,-21,7,1,-3
1615922449031448,-1,-3,-7,-4,38,0,0,3
1615922449032446,-2,-2,6,1,2,-3,-3,-3
1615922449032446,1,-1,-14,-6,17,9,2,3
1615922449035438,0,4,21,9,6,-14,-2,-1
1615922449035438,-4,-1,-5,-16,-21,-11,-1,-4
1615922449043457,1,-1,15,15,-16,-3,0,1
1615922449043457,-2,-2,-3,-5,-4,-4,-1,-2
1615922449051640,0,-3,-4,-1,5,10,-1,-3
1615922449051640,3,1,-5,-1,-8,1,1,3
1615922449065503,-2,-4,-6,-5,31,4,-1,-1
1615922449065503,-2,-2,10,1,-12,-8,-4,-5
1615922449074479,4,1,-4,1,5,4,0,1
1615922449074479,-4,0,-1,-5,-22,-6,-1,-3
1615922449080488,-4,-2,-5,-11,29,2,1,-1
1615922449080488,0,-2,1,13,-10,-2,-2,-2
1615922449089439,1,2,20,11,21,2,1,1
1615922449089439,1,0,-9,-5,-34,1,0,0
1615922449103501,-3,-1,-2,-11,-7,-3,-2,-3
1615922449103501,3,-1,1,-7,-11,-10,2,3
1615922449112377,-2,-5,-11,7,-4,5,-2,-1
1615922449112377,-2,-2,-7,-3,-2,-16,-1,-1
1615922449125342,-1,0,12,12,-15,-2,0,-2
1615922449125342,-1,-3,-8,-5,-28,-8,-2,-2
1615922449134318,0,2,-4,-11,2,3,1,0
1615922449134318,1,-3,-3,1,7,8,1,-2
1615922449140302,2,-1,-5,0,-8,0,0,0
1615922449140302,-1,-1,-12,-6,51,1,-1,-1
1615922449149372,-1,-3,-2,-1,-36,-2,-1,-3
1615922449149372,-1,1,-4,-1,12,6,-1,-1
1615922449163242,-1,-1,-7,-6,-7,-9,-3,-1
1615922449163242,4,9,47,25,4,-1,0,3
1615922449172217,-5,-5,-21,-12,5,7,-1,-4
1615922449172217,-4,-5,-16,-14,-31,0,-2,-2
1615922449186179,-3,2,25,8,2,-5,-1,-1
1615922449186179,-1,-3,-15,-11,-10,0,1,0
1615922449194158,-1,0,11,12,-3,1,-1,-1
1615922449194158,2,5,24,3,1,0,-2,0
1615922449201173,3,1,-16,-6,29,9,4,5
1615922449201173,-1,-3,3,-2,-9,11,0,-2
1615922449209119,-3,-1,2,5,5,2,0,0
1615922449209119,0,-2,-12,0,14,5,0,-3
1615922449232250,-3,-1,6,-2,-16,-3,-3,-2
1615922449232250,1,0,2,5,-4,5,-1,0
1615922449233309,2,2,9,-4,26,5,0,2
1615922449233309,0,-1,-14,-4,-4,-6,-4,-1
1615922449245278,1,-2,10,0,-11,1,1,0
1615922449245278,-2,-2,-15,-2,-12,-3,-2,-1
1615922449254441,0,2,13,-1,-15,-1,1,0
1615922449254441,-1,-3,-11,-1,21,1,-1,-2
1615922449260426,0,0,-20,-9,-7,-3,-2,-1
1615922449260426,-2,-6,-13,-5,18,-1,-1,-1
1615922449269402,-4,-4,7,6,12,-3,-3,-6
1615922449269402,0,0,-4,4,-6,0,0,0
1615922449283464,-2,-1,-8,-9,-13,-2,0,-2
1615922449283464,-3,-4,-15,2,18,-1,0,-3
1615922449292340,0,2,7,-5,-3,-1,2,1
1615922449292340,-3,-3,4,6,-18,18,1,2
1615922449314302,-4,-7,-15,3,15,-8,-3,-1
1615922449314302,-1,2,6,-4,-19,-1,-3,-1
1615922449316277,0,2,-6,-17,-31,-9,-1,-1
1615922449316277,-1,2,40,31,27,6,1,1
1615922449320266,-3,-4,-17,-13,-54,-3,-4,-1
1615922449320266,3,0,1,-5,-12,-3,1,3
1615922449329280,-2,-2,-11,-7,33,-2,-4,0
1615922449329280,2,-1,-20,-17,5,-4,0,0
1615922449343233,-2,-3,11,11,19,6,-2,-2
1615922449343233,-5,-3,-1,1,17,-6,0,-5
1615922449352325,2,5,-7,-3,-19,0,0,0
1615922449352325,-2,-3,-3,-8,-15,-10,-3,0
1615922449365290,2,5,19,5,10,2,0,0
1615922449365290,-3,-6,-10,-4,-13,0,-1,-2
1615922449374266,0,-2,-17,-16,-10,-2,0,0
1615922449374266,-2,2,26,23,-4,-7,-4,-4
1615922449380270,-1,-1,-8,-8,4,-2,-2,-1
1615922449380270,0,2,5,4,-23,-4,-2,1
1615922449389226,-2,-1,1,-11,-12,-1,2,-2
1615922449389226,-1,-1,2,9,24,15,2,0
1615922449403289,-1,0,-5,-10,21,-11,-2,-1
1615922449403289,1,1,6,-1,-30,-12,-1,-3
1615922449412165,-1,-2,-13,-4,27,3,-1,0
1615922449412165,-4,-4,3,6,-6,2,-3,-2
1615922449425154,1,6,18,10,16,2,2,1
1615922449425154,-2,1,0,-11,6,1,-1,-1
1615922449435104,1,-2,-16,3,-14,-2,-2,2
1615922449435104,2,0,13,1,17,-6,1,0
1615922449449166,-2,-7,-25,-2,-5,2,-2,-4
1615922449449166,1,7,55,9,0,-7,0,2
1615922449451061,-3,-5,-13,11,7,0,-1,-4
1615922449451061,-2,-1,-17,-28,-9,-5,-2,-2
1615922449463053,1,1,3,3,14,5,1,3
1615922449463053,-1,-3,-23,-8,15,10,-1,-2
1615922449472005,-2,-2,11,12,-5,-1,-2,1
1615922449472005,-1,0,8,-3,-23,-5,0,-1
1615922449486068,-1,-1,3,1,8,1,-1,-1
1615922449486068,-1,-4,-16,-4,-3,-4,0,-2
1615922449494944,1,0,1,-5,0,2,0,0
1615922449494944,-1,1,-27,-11,8,2,-1,-2
1615922449508959,-1,-1,18,12,-30,-7,-4,0
1615922449508959,-3,-1,16,1,22,4,-4,-2
1615922449510954,-1,0,-4,5,9,-1,0,-1
1615922449510954,-2,0,-8,-1,-17,-4,0,-1
1615922449522922,-2,-2,-17,-21,7,5,1,-1
1615922449522922,-1,-1,-6,-1,-8,-7,-3,-4
1615922449531912,1,0,-4,-4,-13,-4,0,2
1615922449531912,-1,-5,-20,-3,8,-1,-1,-1
1615922449545861,-1,2,10,3,8,4,0,-2
1615922449545861,0,-2,-17,-9,4,3,1,1
1615922449555088,-2,-1,1,2,-12,-12,-2,-3
1615922449555088,1,2,11,8,-3,0,1,0
1615922449576923,-1,-5,-26,-5,-11,-2,0,0
1615922449576923,-2,2,27,9,-19,2,1,-1
1615922449578917,0,1,6,0,19,0,-1,-1
1615922449578917,2,2,1,1,-4,-3,-1,-3
1615922449582910,-2,-1,7,4,-19,-7,-1,-1
1615922449582910,0,1,-13,-15,12,7,0,1
1615922449591882,0,1,28,24,3,3,1,-2
1615922449591882,2,-3,2,-3,-6,-7,-3,3
1615922449605849,-4,-1,-11,-9,7,4,0,-2
1615922449605849,0,-3,-14,9,-8,-22,0,0
1615922449614823,-2,0,-9,-12,10,8,-2,-1
1615922449614823,-2,-3,-12,-5,5,-3,-2,-1
1615922449629781,3,5,37,11,-12,-6,0,0
1615922449629781,1,-4,-18,-4,42,11,0,2
1615922449630779,-4,-1,0,1,-23,-3,-3,-3
1615922449630779,-2,-3,-2,-4,-8,-8,0,-2
1615922449642747,-1,-6,-22,-8,24,3,-2,-1
1615922449642747,0,3,15,1,-11,-1,0,1
1615922449651759,-1,-3,6,3,5,2,-2,-2
1615922449651759,-1,2,7,-1,23,6,1,1
1615922449665685,1,-1,-11,3,-20,-5,1,-1
1615922449665685,-2,0,-5,-8,-13,-1,-1,-3
1615922449674661,-1,-1,5,9,17,0,-1,-2
1615922449674661,-3,-4,2,-7,17,1,0,-1
1615922449689624,1,3,23,15,7,3,1,3
1615922449689624,0,-2,0,-5,-9,-2,-3,0
1615922449691619,-2,-3,-9,-3,0,-1,-1,-1
1615922449691619,-1,1,7,6,-10,2,-1,-3
1615922449703606,-1,-1,-10,-11,-2,4,-1,-3
1615922449703606,-2,0,-2,-7,14,-6,-1,0
1615922449712560,1,-2,5,8,-29,10,-2,-1
1615922449712560,-1,-3,-12,-8,11,0,-4,-2
1615922449725526,1,2,1,4,29,6,0,-2
1615922449725526,0,-2,-17,-6,18,5,0,-2
1615922449735499,-1,-4,-9,-9,-71,-7,1,1
1615922449735499,-1,-1,3,3,1,0,-2,1
1615922449749492,-2,-5,-4,-7,-32,-7,-3,-3
1615922449749492,-2,1,3,3,26,5,-2,-3
1615922449751456,0,-2,-8,-6,12,-5,1,1
1615922449751456,-1,-3,-13,-11,-9,0,0,-1
1615922449763423,-1,-1,-9,-1,-18,-2,-1,0
1615922449763423,-1,2,12,7,-12,-1,-2,1
1615922449779431,1,1,26,4,2,-4,-2,0
1615922449779431,-3,-3,-4,4,13,1,0,-1
1615922449785436,0,-1,7,1,0,0,-2,-2
1615922449785436,0,-2,-3,-6,-28,-6,-3,-5
1615922449794408,-3,-1,-1,-2,21,2,-1,-5
1615922449794408,3,3,-1,-2,0,8,2,6
1615922449809369,-2,-1,-4,-1,-8,-7,-2,-2
1615922449809369,-3,1,4,1,-26,-9,-2,-2
1615922449811364,-1,2,1,-6,38,11,1,1
1615922449811364,-3,1,4,-4,-58,-24,-4,-5
1615922449823332,-2,-2,-11,-1,-10,-4,-1,1
1615922449823332,-1,0,-3,0,5,3,1,-1
1615922449832308,0,-5,-26,-12,-17,-6,-2,-1
1615922449832308,0,0,17,-5,12,3,-1,-5
1615922449845315,1,1,0,11,28,3,2,1
1615922449845315,0,-2,-6,-3,-12,6,0,-2
1615922449854253,0,-2,1,-5,-16,-7,-1,-2
1615922449854253,2,-1,4,-1,10,0,0,0
1615922449869098,-5,-4,-5,7,-12,0,-3,-4
1615922449869098,1,-1,-4,0,5,-4,-2,0
1615922449871092,-1,1,17,3,5,-7,-1,-1
1615922449871092,0,-4,-21,-3,-8,-1,-1,2
1615922449883065,1,2,-5,-10,20,6,1,2
1615922449883065,0,2,24,10,-20,-6,0,-1
1615922449900015,-1,-2,-4,13,32,-3,-2,-2
1615922449900015,-3,-3,-12,-6,-17,12,0,-1
1615922449905999,1,1,14,-7,-7,-20,-2,-1
1615922449905999,-3,-2,10,5,36,-4,-1,-3
1615922449914975,0,1,-18,-12,-26,-2,1,5
1615922449914975,-3,-1,5,7,19,5,-1,-2
1615922449930020,1,-4,-20,-27,-14,7,3,4
1615922449930020,0,2,29,23,-15,-8,-2,0
1615922449930933,-3,-3,7,1,-7,-5,-2,-5
1615922449930933,3,1,-13,-3,23,3,1,1
1615922449942906,-5,-4,-2,-5,-11,-1,-2,-7
1615922449942906,-2,-3,-15,-3,-4,2,-1,0
1615922449951883,-2,2,-13,-8,-2,-9,-1,1
1615922449951883,0,3,14,9,-2,-3,-1,-2
1615922449974848,1,-1,-3,-4,12,4,0,0
1615922449974848,0,0,18,14,-7,-3,3,0
1615922449975850,-2,-2,-14,-4,10,9,-3,-4
1615922449975850,0,-2,-4,-7,-24,-8,1,0
1615922449989776,-2,0,-4,-1,13,1,-3,-1
1615922449989776,-1,-5,-16,-10,-2,4,-3,1
1615922449990798,-3,-3,-4,1,8,-1,-1,0
1615922449990798,-3,-2,9,-3,-13,-7,-3,-2
1615922450002880,0,2,28,17,-40,1,1,1
1615922450002880,-2,0,-4,5,22,9,0,1
1615922450011855,0,1,-5,-12,18,-14,-1,-2
1615922450011855,-1,-1,3,11,-30,2,-3,-2
1615922450025819,-2,-2,2,-4,8,-5,-1,-4
1615922450025819,3,-1,-15,-14,4,8,0,2
1615922450034923,0,3,8,8,-11,-3,1,-3
1615922450034923,-3,-5,-7,1,23,2,1,-1
1615922450056865,-1,-4,-8,4,-7,0,0,2
1615922450056865,-1,2,10,-8,-27,-1,0,-2
1615922450065846,1,-4,-12,-4,13,4,1,1
1615922450065846,0,2,0,-1,-2,2,-1,0
1615922450065846,-1,0,0,7,3,-1,-2,-2
1615922450065846,-3,-6,-9,-4,-1,-5,-1,-2
1615922450071825,-3,-2,-13,-15,-11,9,-2,-2
1615922450071825,-1,-1,4,5,-4,-4,1,0
1615922450085895,0,2,15,5,-12,-10,-2,-1
1615922450085895,-4,-4,-15,-1,12,-1,-3,1
1615922450094763,-1,1,24,3,6,-1,-2,-2
1615922450094763,-1,0,-28,-14,-54,1,-1,0
1615922450109723,-3,-2,7,-2,6,2,-4,-3
1615922450109723,2,1,7,-1,13,-1,-2,1
1615922450110721,-3,-6,-12,10,-8,-1,-2,-3
1615922450110721,0,1,3,-8,4,2,-2,-1
1615922450122711,0,-1,2,1,33,4,-1,-1
1615922450122711,-1,-3,-12,-6,-17,-22,-1,-2
1615922450131706,2,-1,1,-6,-9,5,1,3
1615922450131706,0,4,25,1,16,-3,-2,-1
1615922450145669,-3,1,-6,-3,-23,-2,1,0
1615922450145669,-3,-2,9,10,1,-2,-2,-3
1615922450160379,-1,-1,-5,4,3,0,0,1
1615922450160379,-2,-3,-11,-6,8,-6,-2,-2
1615922450169380,-1,-4,-14,-9,34,2,-2,-1
1615922450169380,0,-1,-4,-2,6,8,-1,-2
1615922450171349,1,3,14,2,-18,-4,2,1
1615922450171349,1,-3,-8,7,62,6,-1,-2
1615922450183317,1,-2,-10,-10,-26,0,-2,1
1615922450183317,-3,-4,-11,-1,6,-8,-1,-2
1615922450192293,-2,-2,-3,-2,-3,2,0,-1
1615922450192293,-1,1,0,-2,18,0,1,0
1615922450205282,0,1,9,6,-3,-6,-1,-2
1615922450205282,-3,2,-3,-5,-9,0,-1,-3
1615922450214258,-2,-1,-1,-2,8,3,-2,-2
1615922450214258,1,0,-7,-12,-10,-8,-2,-1
1615922450229239,-1,0,2,12,-17,0,-2,1
1615922450229239,-1,0,0,0,-7,7,0,0
1615922450237217,-1,1,5,5,3,1,0,0
1615922450237217,-2,-4,-4,-10,-21,-24,-4,-1
1615922450243202,-4,-5,-11,-3,21,10,-1,-3
1615922450243202,2,2,22,13,-4,2,0,-1
1615922450252177,0,4,-19,-9,-7,-3,-1,2
1615922450252177,-4,-3,-3,3,-8,4,0,-2
1615922450265761,2,4,16,9,19,-2,0,1
1615922450265761,-1,-4,-5,-7,-16,-11,-2,-1
1615922450274733,-3,-1,7,-3,20,-3,0,-2
1615922450274733,0,-1,1,-1,-28,5,1,-1
1615922450288698,-2,-6,-18,-7,-26,0,-3,-1
1615922450288698,-1,0,-6,-8,10,8,0,-2
1615922450295679,3,0,9,7,4,2,-1,2
1615922450295679,-2,-2,3,16,15,1,-2,-5
1615922450303659,-2,1,0,-6,3,-7,-1,-3
1615922450303659,-1,-1,-10,-8,-16,-3,-1,1
1615922450312666,-5,-8,1,2,-1,-2,-2,-3
1615922450312666,1,1,-3,-1,5,7,3,1
1615922450325597,2,-2,-14,-12,-14,-2,2,3
1615922450325597,-1,-3,-2,-4,-15,-2,-2,-3
1615922450334574,-2,4,41,11,-11,-5,0,-1
1615922450334574,0,-3,-3,5,27,0,-1,0
1615922450348540,-1,1,9,-1,-8,2,0,-2
1615922450348540,-1,-1,-21,-11,30,9,-1,0
1615922450355517,0,-4,-8,-7,35,0,0,-1
1615922450355517,1,-2,-3,9,-15,-4,0,1
1615922450363495,-3,0,9,0,6,0,-2,-1
1615922450363495,-2,-3,-7,7,-12,1,-2,-1
1615922450378460,-2,0,-17,-9,19,4,-1,-4
1615922450378460,-3,-1,5,11,36,8,-3,-1
1615922450385544,0,-3,-10,-2,5,1,0,-1
1615922450385544,1,0,-4,2,-2,-1,-1,3
1615922450394443,-2,1,-20,-9,-29,-4,-2,-3
1615922450394443,0,2,1,-7,-4,-2,-2,-2
1615922450409373,-3,-6,-3,1,-6,-2,-1,-1
1615922450409373,-1,-3,0,1,14,-2,-2,0
1615922450415361,2,-2,-1,-1,-11,-1,0,0
1615922450415361,-1,-3,-9,-4,-12,-3,0,0
1615922450432452,-1,6,10,3,-7,1,0,0
1615922450432452,1,-1,0,-7,-2,-2,-2,-1
1615922450434338,-1,-2,-7,0,-14,-9,-3,-1
1615922450434338,-2,-2,-2,-14,-13,-1,1,-1
1615922450462501,-1,-1,11,13,-1,10,0,0
1615922450462501,-4,-1,-17,-10,-8,-24,-2,-2
1615922450463498,0,2,8,12,-14,-1,-3,-2
1615922450463498,-2,-5,-7,-8,-20,-4,-1,-1
1615922450469505,-1,-3,-32,-16,2,0,-2,0
1615922450469505,-1,0,18,11,18,7,1,0
1615922450477484,-2,-5,-16,-10,-22,3,1,0
1615922450477484,2,3,10,-2,-7,-9,-3,1
1615922450492445,-4,-3,14,9,12,-4,0,-6
1615922450492445,1,2,-11,-14,-2,2,0,1
1615922450498504,-1,1,20,9,5,0,-3,-1
1615922450498504,1,-2,-7,-2,-14,4,-2,2
1615922450505385,2,-2,-19,5,-6,-6,0,3
1615922450505385,-4,-1,6,1,-3,7,-2,-4
1615922450514362,-1,-3,-10,-5,-5,3,0,-2
1615922450514362,0,-1,-2,-4,7,-2,1,-2
1615922450529321,-2,-5,-12,-9,-3,-1,-1,-4
1615922450529321,1,0,1,3,37,6,2,3
1615922450535309,0,-5,-16,-7,-36,-1,0,0
1615922450535309,-2,2,12,5,15,1,-2,-3
1615922450552260,-1,2,9,0,5,-4,0,2
1615922450552260,-1,0,4,-1,-9,2,2,-2
1615922450553258,-1,0,2,-4,-2,-2,-1,-2
1615922450553258,-2,-4,2,1,0,-12,-3,-1
1615922450565759,1,4,11,1,-11,3,1,-2
1615922450565759,-1,-2,0,2,8,7,-2,-1
1615922450574708,1,-1,-6,1,0,-13,-2,2
1615922450574708,-6,-1,1,-12,-9,4,-3,-4
1615922450588672,1,1,6,20,-11,-4,0,2
1615922450588672,0,-1,2,-9,1,-2,0,-3
1615922450595678,-2,-2,0,-3,-1,5,1,-2
1615922450595678,-1,3,6,7,75,10,1,3
1615922450611635,-2,-5,-12,-15,-90,-23,-3,-1
1615922450611635,0,-1,-6,0,-14,-1,0,-1
1615922450613605,-2,-1,10,9,27,2,-2,-1
1615922450613605,1,-4,-19,-6,-12,4,0,0
1615922450625573,-3,-4,-15,-11,31,-1,-3,-3
1615922450625573,0,3,17,11,-22,-3,-2,-2
1615922450634548,0,-1,3,-3,-3,1,1,1
1615922450634548,-1,-1,-7,-1,-13,-3,-1,-1
1615922450648638,-2,-2,-1,2,31,8,-2,-3
1615922450648638,-1,-3,-5,0,-53,-25,-3,0
1615922450655621,-1,1,-5,7,14,3,-1,-1
1615922450655621,-1,1,-3,-7,-12,0,0,-2
1615922450671578,1,1,17,-9,7,-4,-2,0
1615922450671578,-3,-4,3,7,-32,4,-2,0
1615922450673573,0,-1,0,-2,19,0,2,1
1615922450673573,1,4,3,1,-6,-1,2,-1
1615922450686589,0,-6,-16,-16,-1,0,-2,0
1615922450686589,-1,-2,9,11,27,5,0,-4
1615922450694518,0,-3,-12,-9,-16,-2,0,1
1615922450694518,-1,1,27,13,-43,6,1,0
1615922450708507,0,1,-17,-7,13,1,2,-1
1615922450708507,-5,-2,-17,-7,12,3,0,-3
1615922450717457,-3,0,9,-4,-9,-6,-2,-1
1615922450717457,0,-1,-4,8,12,3,0,-1
1615922450732416,0,3,22,12,-4,-5,-2,-1
1615922450732416,1,-1,-4,-12,-19,-6,1,-1
1615922450734411,-1,-2,-12,-1,11,3,0,-4
1615922450734411,2,-1,4,-6,2,-5,1,0
1615922450745414,-2,-3,-5,2,3,-1,-1,-1
1615922450745414,-1,0,-24,-8,36,4,0,-1
1615922450754357,2,4,38,22,-36,-3,1,1
1615922450754357,2,-2,-10,-8,43,1,0,2
1615922450768441,-3,0,3,1,-11,8,2,-2
1615922450768441,-3,-6,-14,-9,-4,-10,-2,-1
1615922450777393,-3,1,2,1,22,1,-3,-3
1615922450777393,-2,-2,-3,3,12,-6,-2,-1
1615922450792352,0,-2,-4,-14,4,-2,2,1
1615922450792352,1,6,17,16,27,4,-2,-1
1615922450793350,-2,0,-7,-5,-12,-2,0,-1
1615922450793350,-1,-3,-1,3,-9,-4,-2,-3
1615922450805318,-3,1,5,-9,4,-4,-3,-3
1615922450805318,1,-2,-4,-1,-4,5,2,2
1615922450814313,-1,-3,-13,-3,-1,-3,-2,-3
1615922450814313,0,1,3,3,23,5,1,0
1615922450828257,2,1,-3,0,-13,3,-2,0
1615922450828257,0,-4,-11,-5,-34,-24,-3,-1
1615922450837232,-1,1,26,6,14,7,-2,-2
1615922450837232,1,-3,-19,-12,-30,-4,1,1
1615922450852481,-1,-1,11,10,-3,0,-2,-1
1615922450852481,0,0,-11,-2,10,6,0,2
1615922450857953,0,1,16,4,-1,2,-1,1
1615922450857953,-3,1,10,1,10,-8,-1,-4
1615922450865867,0,0,7,11,-22,3,0,0
1615922450865867,-1,-2,-2,-7,-8,4,0,-1
1615922450874839,-2,-5,-13,-14,2,-3,-2,-3
1615922450874839,-1,-2,6,7,-5,5,1,0
1615922450887829,0,1,4,10,12,-1,-1,0
1615922450887829,-3,-2,2,-1,-5,5,0,-2
1615922450904759,-3,-2,-9,-5,-7,-6,-2,-3
1615922450904759,-4,-4,-24,-13,-2,1,-2,0
1615922450911740,-1,0,17,5,14,-2,-2,-5
1615922450911740,2,1,5,3,-16,1,0,2
1615922450913735,-2,-1,-12,-8,-14,-8,-1,0
1615922450913735,-1,-3,0,-2,-12,-1,-1,-2
1615922450934786,-2,-1,-11,-10,32,-5,0,-1
1615922450934786,-3,0,4,7,11,6,0,-2
1615922450937687,1,-1,-20,-2,8,2,0,-1
1615922450937687,-2,0,-1,-5,-16,-3,-2,1
1615922450956773,2,4,11,3,-3,5,0,4
1615922450956773,-5,-6,-13,-20,-15,-20,-2,-4
1615922450958768,1,0,16,-3,46,4,0,1
1615922450958768,-1,-3,-17,7,-8,0,-1,-2
1615922450971733,-1,0,-2,-3,-10,4,0,-1
1615922450971733,1,5,18,-1,11,0,-1,0
1615922450973727,-3,-4,-12,0,-14,0,2,-1
1615922450973727,2,4,15,-1,1,-3,1,0
1615922450985696,-1,-4,-10,-9,3,-4,-2,0
1615922450985696,1,-1,14,7,6,6,-2,-2
1615922450994672,-3,-4,-5,-3,-19,-5,-2,-3
1615922450994672,0,2,10,3,-5,-5,-1,-2
1615922451008634,-3,-5,-14,-4,-17,-5,1,-3
1615922451008634,1,3,0,-11,5,9,2,1
1615922451017611,1,2,11,14,10,-10,-1,-1
1615922451017611,-1,3,12,2,0,2,-1,0
1615922451039556,-2,-6,-24,-12,-12,-6,-2,-3
1615922451039556,-2,-2,6,6,13,2,-1,-2
1615922451042546,2,1,4,-16,14,19,2,1
1615922451042546,0,-2,11,12,-2,-5,-1,0
1615922451045542,1,-3,-13,-3,24,5,0,1
1615922451045542,-3,-1,9,8,-13,-1,-2,0
1615922451054514,-2,-4,-13,2,10,1,-1,0
1615922451054514,-3,-3,-8,-12,-25,-4,-1,-1
1615922451068476,0,-1,4,2,-2,-3,-1,0
1615922451068476,-3,1,-7,-1,-35,-5,-3,-7
1615922451077451,0,-4,1,6,5,3,1,-2
1615922451077451,-1,-1,-6,2,-12,-3,-2,-2
1615922451092435,1,-2,-14,-3,8,-4,1,4
1615922451092435,1,0,29,15,18,0,-2,0
1615922451093408,2,0,-14,-7,-26,-8,0,-1
1615922451093408,-1,-1,-1,-4,-9,6,1,0
1615922451114356,-3,-2,-7,-8,18,1,1,-1
1615922451114356,0,2,-18,-9,10,-3,0,1
1615922451116347,-3,1,16,18,-10,-5,-2,0
1615922451116347,0,-4,-2,-8,-6,2,-2,-1
1615922451128343,0,-3,-5,-8,23,2,-1,-2
1615922451128343,-3,-1,1,1,-4,-1,0,-1
1615922451137367,0,0,6,-2,-17,-11,-3,-3
1615922451137367,-1,-1,-14,-3,11,3,0,0
1615922451151438,-3,1,22,7,0,3,0,-2
1615922451151438,-2,-4,-17,-7,-12,-4,-1,-2
1615922451158334,4,6,7,1,9,1,2,4
1615922451158334,0,-2,10,8,1,-3,-1,0
1615922451165432,1,-2,-6,-2,-16,0,2,1
1615922451165432,1,6,24,5,17,7,1,2
1615922451174398,-4,-8,-17,-5,-15,-8,-3,-2
1615922451174398,-1,1,0,-6,-26,-2,-1,-1
1615922451188362,3,4,32,13,26,3,-3,-4
1615922451188362,-2,-6,-14,0,-3,-10,-1,-2
1615922451197338,-3,-1,-17,-14,-36,7,1,-3
1615922451197338,-2,0,38,19,-2,-9,-1,0
1615922451211326,-2,-1,-9,-2,-16,-5,-2,-1
1615922451211326,0,-5,-18,-5,1,2,0,-1
1615922451218306,1,1,19,-1,7,-2,0,-1
1615922451218306,1,-4,-10,1,10,1,0,0
1615922451242217,-2,6,18,8,-24,2,0,-1
1615922451242217,0,0,-5,-2,34,12,1,0
1615922451243216,-2,-4,-9,-3,-21,-3,-1,-1
1615922451243216,-1,-3,-5,-7,5,0,-2,0
1615922451248474,1,-3,-13,3,0,1,-1,1
1615922451248474,1,0,4,-5,-3,-2,1,0
1615922451257453,-2,-2,-13,-3,-37,-1,-2,-1
1615922451257453,-1,-1,7,-2,28,0,-3,-2
1615922451271443,-3,-3,-8,-4,-26,0,-2,-1
1615922451271443,-2,-5,-19,-8,-10,-3,-4,-2
1615922451278421,0,-1,1,10,29,3,0,0
1615922451278421,2,2,-9,-9,-19,-2,1,2
1615922451285377,-2,-2,-3,-5,17,-6,0,-1
1615922451285377,-2,-5,-11,-2,8,2,-1,-4
1615922451294378,-1,5,8,-22,9,-2,-1,-2
1615922451294378,-1,-3,-11,16,4,6,1,0
1615922451308317,1,-3,-5,0,18,2,0,-1
1615922451308317,0,1,6,1,-2,-5,0,0
1615922451317292,-2,-3,-4,-5,-6,-8,-3,-3
1615922451317292,-2,1,-9,-3,8,9,-1,-2
1615922451340232,0,-1,19,-1,-24,-12,0,0
1615922451340232,3,0,9,6,17,6,1,2
1615922451342250,-3,2,16,-2,15,5,0,-3
1615922451342250,0,0,-11,-1,12,2,2,3
1615922451354193,-1,-2,-24,-3,-15,-2,-1,-1
1615922451354193,-1,-4,8,2,3,-3,-2,-1
1615922451356188,1,0,-2,7,11,-2,-1,1
1615922451356188,-2,-3,-9,-13,-10,-9,-2,-2
1615922451369153,-2,-2,-19,-10,-66,-3,-3,-1
1615922451369153,-3,-1,3,1,27,-5,-2,-4
1615922451392092,2,3,-9,5,-19,-5,0,4
1615922451392092,-2,-1,-1,-4,-12,-6,-3,-3
1615922451393089,-2,-4,-17,-9,5,6,0,-1
1615922451393089,-1,3,31,7,-26,-5,-2,0
1615922451398178,-3,-3,-12,2,5,5,0,0
1615922451398178,-1,0,-3,1,9,-5,-3,-2
1615922451415065,0,5,20,-4,11,-22,-3,-2
1615922451415065,1,-3,-21,-4,-13,-2,2,1
1615922451417030,-1,-2,-3,4,39,2,-2,-2
1615922451417030,-3,-4,12,2,-14,-9,-2,-2
1615922451436973,-1,2,-2,5,28,10,0,-3
1615922451436973,-1,-3,-12,-5,0,-4,0,1
1615922451438967,-2,-3,-1,1,10,-3,-2,-1
1615922451438967,-1,-4,-8,-13,-16,1,0,-2
1615922451450935,1,2,-1,9,-35,4,0,-2
1615922451450935,1,3,16,-9,-17,-7,0,0
1615922451457943,-4,-3,6,12,44,8,0,-2
1615922451457943,1,1,5,-3,-6,7,1,1
1615922451474871,-1,-4,-1,1,9,-10,-2,1
1615922451474871,-2,-6,-5,4,-6,0,-2,-2
1615922451475868,2,1,-7,-16,-19,-4,-3,-3
1615922451475868,-1,0,11,5,12,1,1,0
1615922451487837,-1,1,7,1,-13,4,1,0
1615922451487837,-3,-3,-35,-22,-2,-12,-3,-1
1615922451496812,-1,4,35,24,18,0,-1,0
1615922451496812,-2,-3,4,3,5,1,-1,-1
1615922451510776,1,-3,-2,-6,2,2,0,2
1615922451510776,1,9,22,6,-6,6,1,1
1615922451519752,-1,-3,-8,-3,1,3,1,-2
1615922451519752,2,-2,-13,-11,53,-6,0,2
1615922451542859,-3,-6,-7,9,3,3,-2,-2
1615922451542859,1,-1,8,1,-2,-2,-1,-2
1615922451543832,0,1,19,10,-11,-6,-1,0
1615922451543832,-1,0,-9,-7,2,0,0,-2
1615922451547858,-2,-3,-4,-8,11,0,-1,-2
1615922451547858,-1,0,8,4,12,5,-1,-1
1615922451556799,3,-1,-17,-9,-34,-7,0,0
1615922451556799,-4,-5,-9,-6,-10,-5,-4,-5
1615922451571758,0,2,11,4,13,5,0,0
1615922451571758,0,-3,-4,-2,8,-4,1,1
1615922451577742,-1,-3,-8,-6,-28,0,2,0
1615922451577742,-3,1,5,5,0,5,0,-2
1615922451594696,2,0,-6,-3,2,-3,-1,-1
1615922451594696,-2,3,0,-5,-5,-7,-1,-2
1615922451595727,-1,-4,-2,-3,8,0,-2,-1
1615922451595727,0,-3,-18,-9,7,2,-1,-2
1615922451607931,-5,-2,-12,-14,7,2,0,-5
1615922451607931,-2,-3,5,14,-46,9,-1,-1
1615922451616909,0,-1,-7,-10,-8,-2,-2,0
1615922451616909,-1,-1,-2,0,-1,-1,-3,-1
1615922451631922,0,-2,5,-2,8,-1,0,3
1615922451631922,0,-3,-22,-4,-2,2,1,-1
1615922451637851,-2,1,12,-6,0,0,-1,0
1615922451637851,2,2,8,15,-7,-1,0,-2
1615922451654805,1,1,13,7,1,-4,0,1
1615922451654805,-4,-6,-11,-2,-4,-1,-3,-3
1615922451655803,-1,1,9,-1,-7,-5,1,1
1615922451655803,-1,-2,-12,-7,-1,9,-1,-3
1615922451668768,0,2,22,7,-13,-6,-2,-2
1615922451668768,3,5,14,10,-12,-1,1,1
1615922451676770,-2,-6,-21,-14,12,2,-1,-3
1615922451676770,-2,1,9,4,2,-1,-1,1
1615922451691707,-1,-1,-5,-12,-3,4,-1,-1
1615922451691707,0,-3,26,21,61,-8,-3,-2
1615922451698688,-2,4,-10,-10,-9,5,2,-2
1615922451698688,-3,-3,2,1,-16,-10,-2,-2
1615922451714646,-1,0,18,12,14,1,-3,-1
1615922451714646,0,-3,-12,-12,6,7,-1,0
1615922451722625,0,-6,-22,0,3,-5,-2,1
1615922451722625,-1,0,13,-1,-14,-2,-1,-5
1615922451728737,0,-3,-21,-7,2,-3,0,-2
1615922451728737,0,0,3,-4,-8,2,1,-2
1615922451737612,-2,-3,0,-6,-22,-6,-4,-2
1615922451737612,2,3,8,13,1,2,1,1
1615922451751599,1,2,5,6,2,2,-1,-2
1615922451751599,-2,-3,-12,-5,-20,-6,0,-4
1615922451758582,1,2,-11,-3,7,-8,0,0
1615922451758582,-3,-2,-11,-7,3,0,-2,-1
1615922451774539,-1,0,6,0,4,7,1,0
1615922451774539,-2,-1,-14,-1,-29,-14,-4,-3
1615922451776535,3,1,16,3,17,9,1,5
1615922451776535,-5,-1,1,-2,29,-3,-1,-5
1615922451796479,1,-2,-10,-2,-6,1,0,0
1615922451796479,-3,-4,-14,-11,-7,-21,-1,-1
1615922451803544,0,-5,-5,0,3,5,-3,-2
1615922451803544,2,3,15,4,-3,-4,0,1
1615922451811415,-2,-1,-10,7,-8,-5,-2,-2
1615922451811415,-4,-1,-7,-10,6,12,0,0
1615922451818397,-2,-2,-12,5,13,-3,-1,-1
1615922451818397,1,0,6,-4,-16,0,0,0
1615922451835375,-2,-2,-10,-7,0,-2,-1,1
1615922451835375,0,-2,0,-2,0,8,-1,-1
1615922451837347,-2,-3,2,9,-14,-3,1,2
1615922451837347,2,0,-22,-12,-5,7,2,2
1615922451848416,-1,2,5,-1,-10,-5,-1,-2
1615922451848416,-1,-2,-5,5,7,2,-3,0
1615922451857293,1,1,4,-12,4,4,2,-1
1615922451857293,-3,-4,6,11,-35,-4,-1,-2
1615922451872253,2,-2,2,-2,27,4,0,1
1615922451872253,1,-1,-7,6,-67,-10,1,0
1615922451878261,-3,0,17,-9,6,1,-3,-2
1615922451878261,-1,-3,-14,-11,9,-4,-2,1
1615922451894194,-5,-3,7,16,-11,-3,-1,-3
1615922451894194,-2,0,14,-8,-6,3,1,-1
1615922451896188,-1,0,-6,-2,7,-1,-1,-2
1615922451896188,-1,-2,3,0,-31,-6,-2,-1
1615922451908181,0,-2,2,-2,1,2,1,1
1615922451908181,-1,-4,-6,-4,21,0,-1,-2
1615922451917132,-1,-1,14,11,-35,3,1,0
1615922451917132,0,-2,-9,-7,15,-4,0,-2
1615922451931119,0,-5,-26,-10,-5,-4,-1,0
1615922451931119,0,1,9,5,2,8,0,2
1615922451938077,0,0,4,7,-1,-4,0,-2
1615922451938077,-3,-3,-20,-17,7,5,0,-2
1615922451954171,-2,1,28,17,-8,-2,-2,-2
1615922451954171,0,1,-10,-18,7,-6,-1,-1
1615922451956166,-1,-4,-17,-3,-4,-4,-1,-4
1615922451956166,0,-2,0,-11,-8,-6,-1,0
