timestamp,emg1,emg2,emg3,emg4,emg5,emg6,emg7,emg8
1615922414257795,-1,0,-4,-11,-5,-3,0,0
1615922414257795,0,2,0,4,-5,-5,-2,-1
1615922414257795,0,-4,-16,-9,3,-3,-1,1
1615922414257795,-3,-1,14,1,-21,-1,0,-1
1615922414272750,-2,-1,12,7,14,5,0,-2
1615922414272750,-1,-7,-28,-9,-17,-5,-2,-1
1615922414279731,3,7,55,24,25,9,0,0
1615922414279731,1,1,-20,-9,-19,2,0,-1
1615922414294694,1,-2,-11,3,47,-3,-1,-1
1615922414294694,-2,2,10,0,22,-3,0,-2
1615922414295692,-3,-3,-9,-12,41,1,-3,-2
1615922414295692,-1,-4,-4,11,-16,-2,-1,-1
1615922414309664,-2,-3,2,4,31,5,0,0
1615922414309664,5,3,7,-8,-52,-8,-1,1
1615922414324612,-1,-3,-3,-2,19,-2,-2,-3
1615922414324612,1,-1,-4,-8,0,-2,0,1
1615922414331593,-2,-3,-18,-9,-18,-3,-2,-1
1615922414331593,-3,2,19,13,10,-1,1,0
1615922414339572,-5,-5,-18,-12,-24,-28,-1,-2
1615922414339572,-2,-1,13,-2,-34,-6,-5,-2
1615922414354533,2,-5,-31,-13,-39,-1,-1,0
1615922414354533,1,8,55,34,27,0,0,2
1615922414355531,-3,-6,-33,-13,-32,2,0,-2
1615922414355531,-2,1,38,13,51,-5,-4,-2
1615922414369496,-2,0,0,-10,-62,-14,-2,0
1615922414369496,0,-6,-22,0,-11,1,0,1
1615922414376474,0,2,12,5,12,0,1,0
1615922414376474,-1,-2,-10,-1,-9,0,-2,-2
1615922414393428,-2,1,13,4,-3,1,0,-1
1615922414393428,0,-2,-12,-1,29,17,0,-2
1615922414407391,-2,0,7,-1,-6,-4,-3,0
1615922414407391,-1,0,-10,-6,-3,1,1,-1
1615922414415369,0,1,19,8,19,1,-1,-3
1615922414415369,-2,-5,-13,-14,0,0,1,5
1615922414415369,1,-2,-11,-16,16,3,0,0
1615922414415369,1,1,3,10,1,0,0,0
1615922414429379,1,2,-8,-9,42,5,-1,1
1615922414429379,0,1,10,8,24,-1,-1,-4
1615922414436337,-1,-3,-24,-10,1,8,0,0
1615922414436337,-1,-1,-2,-8,-6,-7,-3,3
1615922414452304,-2,0,10,4,-32,-9,-3,-2
1615922414452304,-1,0,-18,-6,-3,1,-2,-2
1615922414459270,0,1,1,8,17,6,-1,-1
1615922414459270,-1,-2,-9,-7,-3,-12,-1,-3
1615922414475208,-4,-3,0,3,2,-1,-1,-2
1615922414475208,-2,3,20,4,-18,-6,-1,-1
1615922414476207,-2,2,20,12,0,11,-3,-3
1615922414476207,0,-6,-25,-27,9,5,0,0
1615922414489195,3,6,54,37,-26,-2,0,3
1615922414489195,-3,-6,-33,-14,15,-4,1,-1
1615922414497150,2,2,-6,-8,-27,3,-1,0
1615922414497150,-2,-3,25,5,-30,-7,-1,-2
1615922414512132,-4,-7,-23,-15,-15,-6,-5,-3
1615922414512132,-2,-4,-7,5,-4,7,-2,-4
1615922414519651,2,3,15,0,2,-28,-2,-2
1615922414519651,0,-2,-4,0,-13,3,0,1
1615922414536572,-2,-4,-9,-6,1,2,2,-2
1615922414536572,0,-2,-3,10,-16,-3,-2,-2
1615922414537571,-2,3,16,-2,2,-2,-1,-1
1615922414537571,0,-1,-10,-2,24,4,-2,-2
1615922414549537,0,0,-21,-15,-3,-3,0,-1
1615922414549537,-2,0,6,5,7,-4,0,-2
1615922414556545,-2,-4,1,3,-14,1,0,2
1615922414556545,0,0,-6,-2,-7,3,0,-2
1615922414572476,0,-4,7,1,10,6,-2,-1
1615922414572476,-2,-3,-17,-5,-2,-9,-1,-2
1615922414579457,0,-5,-14,-3,-13,3,-1,1
1615922414579457,-3,-3,4,-7,0,-16,-2,-1
1615922414595414,-1,-3,-15,8,-4,-8,-2,-1
1615922414595414,3,2,6,-6,-42,1,0,-1
1615922414595414,-4,-5,-4,-2,2,-3,-2,-2
1615922414595414,0,-1,-1,3,-11,3,-1,2
1615922414611390,-1,-3,-20,-9,12,-1,-1,-1
1615922414611390,0,0,13,0,18,-10,-1,1
1615922414616865,1,4,-5,-4,17,6,0,-2
1615922414616865,0,1,0,-3,4,2,2,2
1615922414631825,2,1,-4,0,9,4,-1,-1
1615922414631825,-1,-5,-7,-2,-66,-3,-2,-2
1615922414638832,1,-1,22,5,43,5,0,1
1615922414638832,-1,0,-5,11,27,7,-2,-2
1615922414654862,-1,-1,8,-3,-9,-2,-2,-1
1615922414654862,-2,-1,-17,-18,3,-20,-1,0
1615922414655760,-1,-3,-3,14,-17,-4,1,0
1615922414655760,-1,1,3,-7,32,4,-1,-2
1615922414669748,-1,-2,17,10,-12,-4,-1,-1
1615922414669748,-2,-5,-5,-8,45,9,-2,-3
1615922414684683,0,3,3,8,-11,-5,0,1
1615922414684683,-1,-2,24,2,-11,-5,-1,-2
1615922414691765,-2,0,-8,1,-8,-3,-1,0
1615922414691765,-2,-4,-23,-9,-2,4,-1,1
1615922414699643,0,-2,-8,-15,-49,0,-2,-2
1615922414699643,-1,-1,10,29,-14,3,0,0
1615922414714603,0,3,18,-2,13,9,3,1
1615922414714603,-3,-4,-19,-15,-25,3,-4,-2
1615922414715601,-4,-2,-3,1,12,4,-1,-2
1615922414715601,1,3,-9,-14,-35,-15,-2,-1
1615922414729563,-2,-3,-8,4,17,3,0,0
1615922414729563,1,2,6,7,9,-2,-1,-3
1615922414736544,-1,-6,-17,-12,21,7,1,1
1615922414736544,-3,0,10,10,-1,2,-1,-4
1615922414751526,-2,0,0,1,29,3,-1,0
1615922414751526,-2,-2,14,1,26,-1,-1,-3
1615922414759583,-2,0,-13,-10,10,-6,-3,-1
1615922414759583,-3,-3,-7,-7,9,4,-1,-1
1615922414775440,0,-1,-3,0,-25,-2,0,0
1615922414775440,0,8,37,17,-54,-20,-1,1
1615922414775440,-2,-2,-11,-4,19,0,0,-1
1615922414775440,0,-2,-13,-9,8,1,0,0
1615922414790420,0,8,22,11,-7,-1,2,-1
1615922414790420,-1,-1,3,-2,22,4,-1,-1
1615922414805360,-2,-3,8,4,-34,-4,0,-3
1615922414805360,-1,-4,-21,-5,-2,-1,-2,1
1615922414811344,0,-2,0,4,3,-4,-1,-1
1615922414811344,1,3,-7,-8,14,3,1,1
1615922414818875,-2,-4,13,5,8,-2,0,-2
1615922414818875,-1,5,13,-1,-8,1,-1,0
1615922414836855,-3,-7,-36,-15,13,-1,-1,-3
1615922414836855,-1,-4,4,9,-6,0,-1,0
1615922414836855,2,-1,-9,-19,2,2,0,-2
1615922414836855,-1,-1,3,16,23,17,4,-1
1615922414850790,1,-2,5,-12,-42,-9,0,0
1615922414850790,0,-1,-7,3,28,3,0,-1
1615922414856773,-4,1,-4,-6,-16,-1,-3,-3
1615922414856773,1,-2,-7,-8,-23,-2,0,0
1615922414871733,-1,0,-1,2,-5,2,0,-2
1615922414871733,-1,-2,6,10,10,2,-2,0
1615922414887691,-1,0,0,2,12,2,0,0
1615922414887691,-1,1,5,-7,-7,-7,-2,-3
1615922414894701,-1,-3,7,6,13,4,-1,-1
1615922414894701,-2,-2,-8,-10,-41,-8,0,-1
1615922414895669,-2,-3,-11,-4,-3,-11,-1,-2
1615922414895669,2,3,13,18,22,1,2,3
1615922414910630,-2,-8,-11,-10,-13,-4,-2,-3
1615922414910630,-2,0,-4,-3,-6,5,0,-3
1615922414916638,-1,-2,-7,-2,-22,-6,-1,-1
1615922414916638,-1,-1,-14,-2,-3,-4,0,-1
1615922414931581,2,4,-1,0,16,-5,-3,-1
1615922414931581,1,-3,7,2,26,6,0,0
1615922414939554,-2,-4,-12,-9,-28,-6,-2,0
1615922414939554,0,-3,7,7,-4,-2,-1,1
1615922414954512,1,-2,-5,1,21,2,0,2
1615922414954512,1,0,-7,-7,7,5,1,-3
1615922414955510,0,0,-2,6,12,1,0,0
1615922414955510,-2,-1,2,-10,-5,-1,-2,-2
1615922414970499,-2,3,17,9,18,6,-1,-2
1615922414970499,-3,-3,-13,-12,-12,-9,-1,0
1615922414985430,-1,-2,-10,21,-22,7,-1,-1
1615922414985430,-1,2,17,-6,-12,-5,0,0
1615922414991440,-2,-1,2,1,25,1,-2,-2
1615922414991440,-2,2,-1,0,67,0,0,1
1615922414999421,1,0,-2,-5,7,-1,-1,-2
1615922414999421,-1,-3,-7,-2,-35,-2,0,0
1615922415015373,0,2,16,0,-16,-5,-3,-3
1615922415015373,0,-1,-8,-2,-19,-4,-1,-1
1615922415015373,0,0,15,-4,15,-3,-1,-2
1615922415015373,0,0,-13,-4,21,4,-1,-1
1615922415030311,-1,0,20,14,-7,-22,0,-1
1615922415030311,-1,-2,-16,-5,-49,10,1,-2
1615922415037291,2,4,6,1,25,-4,-2,1
1615922415037291,-3,0,25,1,-1,-4,-2,-1
1615922415052251,-1,-4,-25,-10,25,6,-2,0
1615922415052251,-1,-5,-10,-4,-22,2,-2,-1
1615922415059257,4,4,0,6,-9,0,1,-1
1615922415059257,-2,-3,-22,-11,-12,-7,0,-2
1615922415082197,0,3,-2,1,-23,1,0,2
1615922415082197,-3,-2,10,1,22,7,-1,-1
1615922415083168,-2,-1,-8,-12,0,-5,-4,-1
1615922415083168,-2,-2,-2,4,-2,-3,-2,-3
1615922415099126,-1,-4,-15,-10,-39,-5,1,-2
1615922415099126,-1,0,2,0,5,-25,-3,-2
1615922415100148,-5,-5,-11,-6,-21,6,0,-1
1615922415100148,-2,2,15,10,0,-7,-1,-2
1615922415112193,0,-5,4,0,-31,-3,-1,1
1615922415112193,0,3,23,2,10,6,-1,-1
1615922415119414,1,-1,-6,-1,18,1,1,0
1615922415119414,-3,-5,-13,-18,-41,-5,0,-2
1615922415135348,-1,3,10,1,30,15,0,-1
1615922415135348,-1,-4,-7,4,-29,-11,-3,-1
1615922415142361,3,3,-6,-7,-47,-2,2,1
1615922415142361,1,-2,2,-3,37,5,-3,-2
1615922415151306,-1,-8,-35,-19,15,-4,-2,-3
1615922415151306,-1,-2,11,10,-6,2,2,-1
1615922415165268,-3,1,17,6,9,3,-1,-2
1615922415165268,-2,-4,-16,-10,-16,-19,-4,-2
1615922415172274,0,4,5,6,6,-3,-1,0
1615922415172274,0,-3,-9,-5,-3,1,-2,0
1615922415179369,1,3,31,12,-60,-12,-4,0
1615922415179369,0,3,21,10,30,7,-1,-1
1615922415194328,0,-2,-6,-4,9,4,0,-2
1615922415194328,-2,1,-5,-8,-5,-4,1,0
1615922415201335,-3,-4,4,8,46,4,0,-1
1615922415201335,0,-1,-21,-4,31,4,2,-1
1615922415211283,-3,-4,6,1,8,-8,-3,-3
1615922415211283,1,6,1,10,-3,5,1,-1
1615922415217272,0,-2,9,0,42,4,0,-1
1615922415217272,-2,-2,-13,-13,-55,2,-1,-1
1615922415240233,0,-1,-2,-3,15,8,0,-1
1615922415240233,2,-4,-7,6,19,-1,0,1
1615922415241227,-1,-2,-15,-6,15,-7,-2,-1
1615922415241227,0,2,21,15,12,4,-1,0
1615922415254194,0,0,1,-6,0,-1,2,0
1615922415254194,-1,1,2,-3,-30,-12,-2,0
1615922415262147,-1,0,6,-16,16,7,1,1
1615922415262147,-3,-7,-19,18,10,7,-1,-2
1615922415277107,0,1,-21,-18,-16,-10,-2,-1
1615922415277107,1,2,14,15,4,-1,-2,-1
1615922415278105,-2,-5,-2,-2,6,-2,-2,-1
1615922415278105,-3,-4,-22,-4,12,-6,-1,-1
1615922415292067,-2,0,3,0,14,-1,-2,-4
1615922415292067,0,-2,-4,-7,-9,21,3,5
1615922415299048,-1,-1,-1,9,-15,-13,-2,-2
1615922415299048,0,1,7,-2,-23,-2,0,-1
1615922415314009,1,-2,-1,7,1,5,0,0
1615922415314009,-4,-4,-13,-22,-20,-4,-2,-5
1615922415321986,-1,-2,2,14,15,1,1,-1
1615922415321986,0,1,4,-6,-48,-7,-1,0
1615922415336947,0,1,19,5,4,1,-2,4
1615922415336947,-3,-4,-14,-8,-2,-9,-2,-3
1615922415337944,-2,-2,-9,-2,-33,-4,-2,-2
1615922415337944,-3,-3,-12,-13,17,-1,-3,-3
1615922415351907,1,3,35,9,-18,2,0,-1
1615922415351907,-1,2,-13,-15,8,0,1,-1
1615922415358888,-2,-1,5,14,-54,-32,-5,-3
1615922415358888,2,3,10,-3,51,6,2,2
1615922415373849,-3,-5,-24,-2,-9,-2,-1,-3
1615922415373849,1,0,-3,-15,2,7,-2,-1
1615922415381827,0,3,19,6,21,20,3,-2
1615922415381827,-1,-4,-4,-4,-27,-5,-4,-1
1615922415397785,-1,-2,-18,-3,-10,-11,-1,0
1615922415397785,-2,-2,7,2,-16,1,1,-1
1615922415397785,1,2,-11,-2,9,1,2,2
1615922415397785,0,1,14,7,0,1,0,1
1615922415411747,-1,-1,-2,-2,20,8,0,1
1615922415411747,1,-2,-9,2,-42,-12,-4,-1
1615922415419726,2,-1,-4,-7,18,4,0,0
1615922415419726,1,0,-9,-1,13,17,0,-2
1615922415434686,-3,-5,-17,-19,-21,-13,-1,-1
1615922415434686,1,8,67,33,-4,-2,1,0
1615922415441667,-2,-6,-23,-11,-1,2,-1,0
1615922415441667,0,2,18,7,39,1,-1,-1
1615922415457625,-2,-3,-8,-8,-48,2,-3,-3
1615922415457625,-1,-5,-10,-5,16,-4,0,0
1615922415458648,1,1,-4,-2,9,8,2,-2
1615922415458648,-1,-2,10,-2,-43,-6,-1,-2
1615922415471588,-1,-1,-18,-2,18,9,-2,-1
1615922415471588,-3,0,3,-2,-2,-10,-2,-1
1615922415479566,0,3,-1,3,-7,-1,-3,-1
1615922415479566,0,-5,-17,-3,21,10,1,-1
1615922415495523,1,2,1,-7,-31,-5,-1,-2
1615922415495523,0,-4,-31,-12,11,10,0,-2
1615922415501533,-1,-1,21,6,1,-2,0,-4
1615922415501533,2,0,2,6,-10,-3,0,1
1615922415517465,1,1,7,10,-22,-4,-1,-1
1615922415517465,-2,-5,-10,-3,115,9,-2,-3
1615922415518463,-2,-1,-15,-4,-16,1,1,1
1615922415518463,0,-1,-4,-5,-24,-11,-3,-3
1615922415531428,-3,-1,11,12,13,6,2,-1
1615922415531428,-1,0,2,2,-47,-11,-2,-3
1615922415539426,-3,-6,-11,-8,6,2,1,1
1615922415539426,-3,6,4,-4,13,-1,-1,-1
1615922415554370,3,-2,7,19,12,12,2,0
1615922415554370,1,4,11,5,10,1,0,-1
1615922415562345,-2,-3,-6,-18,0,4,-2,-3
1615922415562345,-1,-3,32,18,12,5,2,0
1615922415577308,-1,4,-3,1,-8,0,-1,-2
1615922415577308,-2,-2,10,0,52,6,-2,-1
1615922415578302,-2,-1,3,-1,-3,-5,-2,-2
1615922415578302,-1,-5,-11,-5,-41,-3,-1,-2
1615922415592269,-1,-2,5,-4,12,-4,1,-1
1615922415592269,0,-2,10,0,-30,-5,0,-2
1615922415599273,-1,-2,-8,-4,33,3,-1,-1
1615922415599273,-1,-2,-11,2,-10,-9,-1,-2
1615922415614207,-2,-2,-10,-7,-24,-5,-1,1
1615922415614207,-3,0,-9,-10,-6,-7,-3,-1
1615922415622185,0,-1,16,23,3,-1,-4,-1
1615922415622185,0,3,3,-10,7,-3,-2,0
1615922415646159,0,-2,9,-5,14,1,-2,0
1615922415646159,0,-1,-17,-2,-16,-3,0,0
1615922415646159,-1,-2,-3,-8,-10,-1,-1,1
1615922415646159,-1,-2,-13,-2,10,-4,-2,0
1615922415652125,-1,-3,-3,-4,-1,-11,-2,-4
1615922415652125,1,-2,-9,-1,-1,1,-1,0
1615922415659106,4,2,6,0,2,3,0,-1
1615922415659106,-4,-2,-1,1,3,-10,-2,-3
1615922415674046,-1,0,-10,-20,40,1,-2,-2
1615922415674046,-1,-4,7,19,-29,-4,2,-2
1615922415682052,-3,-1,-11,-7,72,18,1,-1
1615922415682052,0,-2,-7,-1,-10,-13,-3,0
1615922415696985,-3,-3,-16,-4,-12,-2,0,-1
1615922415696985,0,1,-8,-9,14,4,-1,-1
1615922415697983,-1,-2,-3,-1,-13,-4,1,-1
1615922415697983,-3,-2,-2,-1,17,9,0,-3
1615922415711967,-3,-1,14,3,0,-4,-2,-2
1615922415711967,1,1,2,6,-4,-2,3,3
1615922415718955,0,-3,-8,-8,-30,-14,-1,-2
1615922415718955,-1,-4,-9,-20,-22,-2,0,-1
1615922415733886,1,-1,18,24,-15,-7,-3,0
1615922415733886,-1,-1,8,0,4,2,-1,-2
1615922415741865,-2,-3,-4,-16,-12,-1,0,-1
1615922415741865,-2,-2,4,17,-6,-8,-1,-1
1615922415757848,-1,3,19,5,49,2,-1,0
1615922415757848,-3,-7,-25,-24,-13,0,-1,-2
1615922415758826,-2,2,40,35,15,-8,-2,0
1615922415758826,0,-2,-14,-7,-3,2,-1,-2
1615922415771786,2,-1,-13,-9,-22,-3,1,0
1615922415771786,0,0,4,2,8,0,-2,-2
1615922415779764,-1,0,-5,-5,2,0,-3,-1
1615922415779764,-4,0,-3,-1,8,2,0,-3
1615922415794724,-3,-9,-27,-11,17,-4,-1,-2
1615922415794724,2,10,63,31,-11,0,-2,3
1615922415801705,-1,-3,-7,-13,-29,-1,0,-1
1615922415801705,-2,-4,2,4,45,10,0,0
1615922415817663,-1,-2,-8,-5,-29,14,0,-1
1615922415817663,-2,-4,-13,-5,4,0,-1,-2
1615922415818660,-1,2,3,4,-26,2,-1,1
1615922415818660,2,1,15,-1,13,1,-1,1
1615922415831625,-1,1,-3,3,-5,0,0,-1
1615922415831625,-2,-5,-4,-4,-30,-6,-2,-2
1615922415839603,-1,1,-4,-5,-25,1,-2,-3
1615922415839603,0,0,-18,-8,-15,-4,1,0
1615922415854565,0,6,19,21,-17,-8,0,1
1615922415854565,-1,-4,-13,-11,-1,1,-1,-2
1615922415861545,-1,-5,-13,-8,1,-3,-2,-1
1615922415861545,0,3,2,-3,4,-1,-2,-2
1615922415877502,-3,-2,36,16,-19,-4,1,-1
1615922415877502,1,1,-15,-4,24,6,0,2
1615922415879497,0,-2,17,-1,-78,-13,0,0
1615922415879497,-3,-4,-7,-10,15,5,-4,-3
1615922415891465,-2,1,0,1,16,3,-2,-1
1615922415891465,-3,-4,-21,-15,13,3,1,-1
1615922415899444,1,0,-7,2,-3,-5,0,0
1615922415899444,1,1,12,4,-13,-3,0,2
1615922415914428,0,0,-25,-10,-10,-2,0,0
1615922415914428,0,-1,-6,-3,25,-6,-3,-2
1615922415921385,0,-3,-13,-7,14,2,-1,0
1615922415921385,2,1,17,17,-18,-2,0,0
1615922415937368,-1,-3,-5,-17,16,3,0,2
1615922415937368,-2,-5,-1,21,-3,-3,-1,-2
1615922415938365,0,6,1,-6,11,4,1,0
1615922415938365,-1,-3,-7,-6,0,-1,0,-1
1615922415951435,0,0,-1,-5,51,-12,0,-3
1615922415951435,0,-2,-8,-1,-25,-15,-4,0
1615922415959555,-2,-2,-5,1,45,1,1,-3
1615922415959555,-1,-3,-14,2,-9,5,-2,0
1615922415974491,1,5,12,-3,39,1,1,0
1615922415974491,-1,2,5,-5,-31,1,-1,0
1615922415981473,-3,-5,-22,-5,37,1,-2,-2
1615922415981473,1,-2,8,-3,-12,-5,0,0
1615922415999425,1,-2,-6,16,-22,-1,-2,0
1615922415999425,-1,5,10,-4,-9,1,0,0
1615922415999425,1,2,-1,0,13,14,1,1
1615922415999425,-2,1,2,-10,2,10,1,0
1615922416012392,-1,-1,-1,10,-33,-5,-2,-1
1615922416012392,1,0,0,-1,-30,-8,2,1
1615922416027375,-1,-2,-2,2,0,-1,-1,-4
1615922416027375,1,-1,-4,-12,-17,-2,-1,4
1615922416034355,-4,-5,-17,-2,20,4,-2,-1
1615922416034355,-1,4,28,-1,6,-2,-2,-1
1615922416042309,-3,-4,8,8,-9,-3,-1,-1
1615922416042309,0,-1,-12,-7,-10,-9,-2,-3
1615922416057271,-1,-2,-12,-10,-28,4,0,0
1615922416057271,-3,-2,12,8,57,2,-4,-4
1615922416065273,0,4,10,2,-7,-2,-2,1
1615922416065273,-2,0,-1,4,4,-16,-2,-2
1615922416072230,0,-2,-3,-8,4,6,-1,-2
1615922416072230,-2,-3,-13,-2,-8,-6,1,-2
1615922416079211,1,-2,-4,4,14,4,-1,1
1615922416079211,-3,1,14,-4,11,5,0,-2
1615922416094196,0,1,15,15,-12,-7,-2,1
1615922416094196,-1,-2,-10,-12,4,9,1,0
1615922416102174,-2,-1,-2,7,-12,-6,1,0
1615922416102174,-1,-6,-4,8,5,3,-1,-2
1615922416126113,-3,-3,-2,-14,-18,-2,-3,0
1615922416126113,1,-2,-10,-3,4,-1,-1,-1
1615922416126113,-1,-5,-13,-9,-61,-7,-2,-1
1615922416126113,0,8,20,4,52,7,-1,-3
1615922416132070,0,0,14,9,-10,-4,2,-3
1615922416132070,-1,-1,-10,-1,27,3,-1,-1
1615922416140049,1,-1,-10,-2,51,5,0,-1
1615922416140049,0,-2,10,11,-41,-6,-1,-1
1615922416154039,-2,-2,-10,-10,12,3,0,-1
1615922416154039,-1,-2,5,0,-28,-4,-1,-1
1615922416161993,2,1,3,-1,9,-3,-1,0
1615922416161993,-2,-4,-19,-13,7,4,-1,0
1615922416176951,1,5,39,23,-1,-1,-1,0
1615922416176951,-1,0,6,6,-25,2,-2,-2
1615922416184960,-6,-5,-4,-2,21,0,-1,-3
1615922416184960,3,1,10,4,-31,1,1,1
1615922416199889,0,1,-15,-14,4,6,-2,-2
1615922416199889,-2,-3,-17,-9,-44,-28,-2,-1
1615922416200887,-2,-2,5,7,24,8,0,-1
1615922416200887,-1,-2,-15,-1,21,-2,-1,0
1615922416214849,-4,-4,-12,-6,28,0,-2,-2
1615922416214849,-1,3,8,2,14,10,0,1
1615922416221854,0,-1,-7,-6,-34,-6,-1,1
1615922416221854,-5,-4,-14,-10,-10,-6,-1,-4
1615922416244794,-1,0,-3,7,0,-5,0,-2
1615922416244794,-1,-4,-15,0,-17,4,-1,-1
1615922416245768,-1,0,7,-9,-12,-4,-2,0
1615922416245768,0,0,0,6,12,3,-1,1
1615922416259754,-3,-5,26,0,-42,-8,-1,0
1615922416259754,1,4,-26,0,23,14,-1,-1
1615922416260727,-1,-2,-3,-7,-38,-19,-3,0
1615922416260727,-1,-4,-10,-9,-6,-3,-1,-1
1615922416274689,0,-1,-9,-17,-2,-4,-1,0
1615922416274689,-2,-6,1,5,-9,-2,-2,-2
1615922416281670,-2,6,17,-2,37,10,0,-1
1615922416281670,-1,-2,-11,3,26,-2,-1,-1
1615922416296631,-4,-3,-8,-11,6,0,0,-1
1615922416296631,-1,-1,12,7,5,-1,-1,-1
1615922416304629,-1,0,-11,-9,-6,5,0,-2
1615922416304629,-1,-2,3,2,-33,-6,-1,0
1615922416319596,-1,3,7,2,8,6,0,-3
1615922416319596,1,-3,7,-4,-2,-5,1,-2
1615922416320569,3,1,5,6,-9,3,0,2
1615922416320569,-1,-1,-1,-9,17,-2,-1,-1
1615922416333993,3,0,1,7,-1,-2,-2,2
1615922416333993,-3,-2,-8,-10,-27,-2,-3,-1
1615922416341970,-4,-2,1,-3,-5,-4,-2,-2
1615922416341970,-1,-1,2,5,-15,3,-2,-1
1615922416356902,-2,-2,-12,-7,-30,-2,-1,-1
1615922416356902,0,6,22,10,35,-6,0,1
1615922416364881,-4,-5,-7,-1,-12,-7,-3,-5
1615922416364881,0,-4,-8,-10,-37,-13,-5,0
1615922416379842,1,4,4,15,-6,1,2,-1
1615922416379842,-3,1,9,-7,-3,2,1,-2
1615922416380839,-1,-4,-5,1,19,20,-2,-2
1615922416380839,-1,-2,2,3,7,-1,0,-2
1615922416394800,2,2,-14,-6,-8,1,1,1
1615922416394800,0,-1,-27,-16,-13,1,0,0
1615922416401782,-1,4,23,27,-2,-4,1,-1
1615922416401782,0,1,5,-7,-2,5,0,-1
1615922416416749,0,-7,-22,-11,11,-3,-4,1
1615922416416749,0,1,7,5,9,2,1,0
1615922416424743,-2,-4,-8,-14,-20,-8,0,-1
1615922416424743,-2,1,-1,16,55,-1,0,-1
1615922416439681,-1,-4,-3,-5,-57,-9,-1,-4
1615922416439681,1,2,7,1,18,2,0,1
1615922416440678,-1,0,4,5,3,-5,-1,-1
1615922416440678,4,0,0,-4,5,5,1,1
1615922416454641,-3,-7,-17,-3,-10,-23,-3,-4
1615922416454641,1,-4,-17,-17,17,2,1,-2
1615922416461623,0,-3,9,16,12,0,-2,0
1615922416461623,1,2,9,-8,-20,-2,0,-1
1615922416476590,0,0,3,6,48,9,1,1
1615922416476590,1,-6,-15,-3,-54,2,-2,1
1615922416484585,0,2,3,-8,-21,-11,-2,-1
1615922416484585,-3,-3,-19,-2,8,0,-3,-3
1615922416499544,-1,2,15,7,24,4,-2,2
1615922416499544,-3,3,0,-9,-4,-7,0,0
1615922416500519,2,1,4,2,-2,5,1,2
1615922416500519,-3,-1,0,0,-10,-1,-3,-2
1615922416514505,-1,-1,-12,-6,19,15,0,-1
1615922416514505,-2,-5,-1,2,38,-1,-2,-3
1615922416521479,-1,-3,-14,-4,3,-2,-1,-2
1615922416521479,0,1,4,9,-11,-2,1,0
1615922416536449,-1,0,4,-8,9,5,-1,1
1615922416536449,-2,-4,-3,-2,-18,-7,-2,-1
1615922416544421,2,3,2,1,0,0,1,2
1615922416544421,-3,-4,-17,-7,2,0,0,-3
1615922416560359,-1,-2,-2,5,-31,-10,-2,-4
1615922416560359,-1,0,9,0,26,4,-1,-1
1615922416560359,-3,-6,-3,-5,-36,-7,-3,-2
1615922416560359,0,4,0,1,-3,-2,1,1
1615922416574345,-2,-4,-11,-7,67,3,0,-1
1615922416574345,2,4,27,3,-9,-9,-5,1
1615922416582301,1,0,-19,2,24,12,4,1
1615922416582301,-1,0,8,0,-52,-23,-2,-1
1615922416605242,0,-1,-1,6,0,2,0,1
1615922416605242,-1,-1,9,10,14,7,0,-4
1615922416606276,1,2,5,-4,28,0,-4,-3
1615922416606276,0,-1,-6,-4,-19,-1,1,-2
1615922416628181,2,-1,-8,-8,-7,0,0,1
1615922416628181,-4,-4,-14,-4,-34,-5,-1,-2
1615922416629175,-3,1,14,1,-1,-6,-3,0
1615922416629175,-2,1,-3,0,17,6,-3,-2
1615922416634161,0,0,11,2,18,-1,-2,-3
1615922416634161,-1,-2,-13,-2,-19,4,-1,-1
1615922416642140,-1,-4,-18,-18,-17,-24,1,-1
1615922416642140,-1,-5,12,10,48,-1,-5,-1
1615922416657169,-2,7,12,5,-11,-5,-4,1
1615922416657169,-1,0,13,5,-31,-8,1,0
1615922416664150,-3,-2,-14,-11,-10,1,-2,-2
1615922416664150,2,-2,-4,-3,-4,5,2,2
1615922416680110,-3,-3,-3,-10,-47,-13,-1,-3
1615922416680110,-2,-6,-3,-2,29,2,-3,-2
1615922416681105,2,5,1,6,-10,-4,-1,1
1615922416681105,-2,-4,-4,-5,-1,1,-3,-4
1615922416694046,2,2,-11,-3,0,2,-1,0
1615922416694046,-1,-4,9,8,-11,1,0,-1
1615922416702051,-1,-7,-25,-25,1,7,-2,-3
1615922416702051,0,2,17,-3,-52,-25,-3,-2
1615922416724964,-2,-4,16,24,7,-4,0,-1
1615922416724964,-2,0,-11,-9,-41,5,-2,-1
1615922416725962,-2,-5,-9,-3,23,8,-2,-2
1615922416725962,-2,1,-6,-8,12,-6,1,1
1615922416739753,-1,1,1,0,9,1,2,-1
1615922416739753,-2,3,-2,-3,3,-9,-1,-2
1615922416740750,-1,2,15,9,-25,0,-1,0
1615922416740750,-1,-2,-5,2,-6,8,0,-1
1615922416755709,0,-1,9,5,6,4,0,-1
1615922416755709,-1,1,-9,-3,3,-8,-3,-2
1615922416761713,1,2,10,-1,-6,2,0,-2
1615922416761713,-2,-5,3,-2,-7,-20,-2,-1
1615922416776766,2,7,21,-5,53,3,-2,2
1615922416776766,0,2,13,24,12,7,1,-1
1615922416784668,-4,-5,-9,-1,1,-5,-1,-1
1615922416784668,0,0,10,-1,-12,10,1,-1
1615922416799619,-2,-3,-11,-6,-18,3,-1,-4
1615922416799619,0,-1,3,-5,3,-5,-1,0
1615922416800590,0,-2,14,5,70,-8,-3,-3
1615922416800590,-1,-2,-9,9,12,5,-3,0
1615922416814577,-1,-1,-12,-6,-4,3,1,0
1615922416814577,-2,-2,-10,-8,-8,-2,-1,-4
1615922416829513,-2,-4,-10,1,9,2,2,0
1615922416829513,1,1,16,-1,31,20,3,0
1615922416836494,-4,-5,-13,-7,7,-5,-1,-2
1615922416836494,0,1,16,4,22,0,1,1
1615922416844512,-2,0,-10,-2,-2,1,0,-2
1615922416844512,-2,-1,-5,0,5,-2,-1,-3
1615922416860441,1,-1,0,10,-14,-7,-1,3
1615922416860441,0,-6,-1,-5,-8,2,0,1
1615922416860441,0,2,-15,-8,-13,1,-3,0
1615922416860441,0,0,6,5,-2,2,0,-1
1615922416874427,-3,-5,-27,-13,-41,-9,-2,-3
1615922416874427,-2,0,-16,-8,11,-10,-2,0
1615922416882382,-2,0,16,1,-8,0,-3,-2
1615922416882382,-2,-3,-10,-6,-8,6,-1,0
1615922416896345,-1,-6,-23,-26,-45,-3,-1,-2
1615922416896345,1,6,21,29,0,9,-1,1
1615922416904328,-1,-4,-1,-4,-21,-6,-2,-3
1615922416904328,1,2,-17,-7,33,5,2,1
1615922416920295,0,0,2,-11,-9,0,0,0
1615922416920295,-2,-5,-4,-5,14,10,1,-3
1615922416921278,1,1,11,10,-26,-5,1,1
1615922416921278,-4,-4,-1,-8,-5,-4,-2,-3
1615922416934247,0,-1,-5,10,11,2,0,1
1615922416934247,2,-1,2,-6,3,10,0,1
1615922416950204,3,4,19,-6,-10,-3,0,2
1615922416950204,2,4,-5,-2,-20,-5,-1,0
1615922416957182,-1,0,8,11,12,-2,-4,-2
1615922416957182,-4,-7,-30,-19,15,-2,-3,-3
1615922416964164,1,2,11,21,2,4,3,1
1615922416964164,-2,2,27,15,20,1,0,-2
1615922416979145,0,-1,1,-5,-46,0,-1,-2
1615922416979145,1,-5,-14,-10,-7,-5,-4,-1
1615922416987148,-3,-3,-3,-6,28,5,-1,-2
1615922416987148,-2,-1,-4,1,-47,-4,-1,0
1615922417002108,0,2,2,-2,55,2,0,2
1615922417002108,-3,1,-1,-3,37,4,0,-2
1615922417003081,0,-3,-1,3,-18,9,0,-1
1615922417003081,1,-2,1,-2,49,4,0,1
1615922417017204,0,5,19,11,-1,8,0,-3
1615922417017204,-1,1,-2,-7,-31,-19,-2,-1
1615922417024161,-3,-4,-2,6,23,8,-2,-2
1615922417024161,0,-3,-19,-1,14,-5,-3,-1
1615922417039151,-2,-1,8,-13,-42,-9,-3,-1
1615922417039151,-1,-2,0,12,-10,3,1,-2
1615922417056261,0,0,-9,-6,-29,-5,-2,-2
1615922417056261,-3,-3,-14,-12,-17,-6,-2,-1
1615922417057259,-1,0,6,5,6,0,0,0
1615922417057259,-1,2,-9,1,9,-3,0,1
1615922417062245,-2,3,15,5,-2,-3,-1,1
1615922417062245,-2,-6,8,-5,4,10,0,-3
1615922417077205,1,2,-5,6,21,2,0,-2
1615922417077205,1,-4,7,-11,-3,0,-2,0
1615922417084296,-2,2,5,16,-10,-4,-3,-2
1615922417084296,0,-5,-12,-6,-7,0,0,-1
1615922417099147,0,2,8,5,-2,14,-1,-1
1615922417099147,-3,-1,-4,-12,-60,-21,-4,-4
1615922417107262,1,-4,-25,-13,-4,-5,3,5
1615922417107262,-1,2,22,21,-41,-2,0,0
1615922417114246,-2,-2,-6,-8,-9,-7,-2,-2
1615922417114246,-2,0,-1,0,19,4,1,-1
1615922417122224,-2,3,-3,-1,1,0,-2,-2
1615922417122224,-2,2,-13,-6,-4,-6,0,0
1615922417137188,1,-5,-9,-3,7,-6,-1,1
1615922417137188,-1,3,5,-22,30,6,0,1
1615922417144171,0,1,23,29,-23,14,2,-1
1615922417144171,1,0,4,-5,9,-1,1,1
1615922417161121,-1,-3,-2,1,12,4,-2,-5
1615922417161121,-1,-4,-18,-9,-34,-10,0,-1
1615922417167129,0,-1,9,0,74,8,-3,-3
1615922417167129,1,3,0,-8,-16,7,1,0
1615922417182129,-2,-3,6,0,25,-6,-2,0
1615922417182129,0,-1,4,22,-46,4,0,1
1615922417183127,2,4,-9,-18,20,-17,-4,1
1615922417183127,-3,5,19,14,4,3,-1,-2
1615922417197222,-1,-1,-7,-6,4,-4,0,0
1615922417197222,-2,-5,-3,3,16,7,0,-1
1615922417204304,-2,0,-9,-8,-35,-10,-2,-4
1615922417204304,-3,-4,-2,-13,-16,-14,-2,-3
1615922417228245,-1,-3,-9,10,13,5,-1,0
1615922417228245,1,4,23,-5,1,-5,1,1
1615922417229137,-4,-8,-11,-3,-17,-1,-1,-2
1615922417229137,1,1,-19,-11,14,1,-1,-1
1615922417242127,-2,-2,6,6,-22,-6,0,-1
1615922417242127,2,2,-8,0,39,-2,1,2
1615922417243100,-4,-7,-12,-23,14,2,-3,1
1615922417243100,1,1,19,23,-14,-6,-1,0
1615922417257066,-1,3,-11,-9,-2,2,1,-1
1615922417257066,0,-2,-5,5,6,2,-2,-1
1615922417264048,-3,-5,-9,-11,-3,-3,0,0
1615922417264048,-2,0,-5,-5,5,3,-2,0
1615922417287980,-2,-6,-22,-10,-25,-24,-3,-2
1615922417287980,-1,1,24,12,16,12,1,1
1615922417288978,-1,-1,-2,2,-7,-5,-2,-3
1615922417288978,-2,-3,-9,-3,7,-4,-2,-1
1615922417302940,0,2,17,0,5,1,0,-3
1615922417302940,1,-2,-10,1,-24,-1,0,0
1615922417302940,-2,-1,-7,-6,-5,-5,-1,-1
1615922417302940,-2,-6,1,7,43,4,-2,-2
1615922417316903,-2,3,21,12,-10,15,-1,0
1615922417316903,0,-5,-29,-2,13,-9,-2,-2
1615922417324881,0,3,33,0,-17,1,-1,0
1615922417324881,-1,-5,-17,5,-15,-5,-1,-1
1615922417339841,2,2,-15,-10,9,3,-1,0
1615922417339841,-2,0,-2,1,-2,9,0,0
1615922417347823,-2,-4,-25,-9,-7,-19,-4,-1
1615922417347823,-1,2,12,-2,13,-1,-1,-2
1615922417362781,1,-2,-10,-4,-7,1,1,3
1615922417362781,0,2,4,-4,-10,3,1,-2
1615922417363778,-3,-4,1,7,-4,-4,-1,-3
1615922417363778,1,5,-1,0,-23,-3,-2,0
1615922417384723,-2,-1,1,-3,-2,-4,-1,-1
1615922417384723,-3,-4,3,0,14,-3,-4,-3
1615922417385720,1,3,2,-4,20,7,1,0
1615922417385720,-1,-5,-3,7,-18,-4,0,0
1615922417399691,1,1,26,5,-2,0,-2,-2
1615922417399691,-4,-6,-18,-7,18,-6,-2,-3
1615922417407660,0,3,5,-1,-6,6,-1,-1
1615922417407660,1,1,7,-1,-11,6,-3,1
1615922417422620,-2,-2,-9,-9,-48,-22,-2,-2
1615922417422620,-1,-5,-11,-3,36,1,-2,-2
1615922417423618,-2,-2,-10,-5,-3,0,-1,-1
1615922417423618,-3,-1,3,1,-5,1,-1,-1
1615922417436582,0,0,0,5,-4,5,1,1
1615922417436582,0,4,11,4,-22,-8,-2,2
1615922417452542,-1,-5,-20,-15,4,2,-1,-1
1615922417452542,0,2,35,33,25,3,-1,-3
1615922417460521,-1,1,15,-2,0,-4,-1,-2
1615922417460521,-3,0,-17,4,-28,6,1,1
1615922417467501,1,-1,4,-9,12,4,-1,-1
1615922417467501,2,1,11,-5,-23,-4,1,1
1615922417482460,-2,-2,-14,-2,6,0,0,-1
1615922417482460,-1,-3,9,1,-7,13,-3,-3
1615922417490439,2,1,-1,3,-3,-2,0,0
1615922417490439,0,4,-2,-14,-28,-11,-1,0
1615922417496423,-2,-7,-14,11,25,9,-2,-2
1615922417496423,1,7,21,-11,-36,-5,0,1
1615922417504405,-1,-1,4,7,-17,-7,0,-1
1615922417504405,-1,-5,-29,-30,32,4,-1,-2
1615922417519513,0,-3,-2,13,1,0,-1,1
1615922417519513,-2,-1,7,-5,-2,-8,-2,-3
1615922417527467,-3,1,-2,13,11,3,-1,-2
1615922417527467,-1,0,-1,-17,-53,-3,1,1
1615922417542427,-3,-2,-12,-6,27,3,-2,-1
1615922417542427,0,-1,0,1,-23,-6,-2,0
1615922417543424,1,1,5,-4,4,11,0,0
1615922417543424,-3,-6,-10,2,8,-7,-1,-1
1615922417557386,-2,0,6,-6,-5,-3,1,-1
1615922417557386,3,2,22,12,31,3,1,3
1615922417564367,-2,-1,-4,1,8,8,-1,-2
1615922417564367,0,1,-10,-3,-5,0,-1,0
1615922417579349,0,-6,-3,-9,-34,1,-3,-1
1615922417579349,1,6,-6,12,45,-5,0,1
1615922417587327,-1,-3,-1,-7,-8,-5,-2,-1
1615922417587327,1,1,20,19,45,2,0,2
1615922417602287,-2,-2,-10,-19,-44,-3,-2,-3
1615922417602287,-3,-4,1,13,5,0,-1,0
1615922417603284,0,1,0,-3,-20,-6,1,-1
1615922417603284,-1,-4,-12,-4,23,3,-1,-1
1615922417617272,2,1,3,-2,2,-11,-2,-1
1615922417617272,-2,-3,8,1,-39,1,-3,-1
1615922417624228,4,10,8,4,-20,-7,0,1
1615922417624228,-1,-1,-9,-7,23,-3,-2,-2
1615922417639451,-1,-4,0,-3,11,3,-1,-1
1615922417639451,-1,3,-11,-8,-16,-2,1,-2
1615922417647322,0,-3,-7,6,-3,-3,0,1
1615922417647322,-3,-4,-19,-12,1,6,-3,-2
1615922417662281,1,3,7,5,2,2,-1,0
1615922417662281,-3,-4,-2,-8,2,-6,-1,-4
1615922417663279,-2,-5,0,-9,-2,3,-1,0
1615922417663279,-2,-1,-11,11,23,-1,0,-3
1615922417677342,-1,2,11,0,-15,-1,2,0
1615922417677342,1,-4,-14,-8,33,1,0,0
1615922417684223,-2,-4,2,3,-28,-5,-1,1
1615922417684223,0,2,16,-10,-20,-2,1,-1
1615922417699209,-2,-1,-9,-1,30,9,1,1
1615922417699209,-1,-3,0,3,21,6,0,-2
1615922417715167,-1,-3,-4,-7,-5,-8,1,-1
1615922417715167,2,5,15,8,35,5,0,0
1615922417722122,-2,-4,5,4,25,0,-1,-2
1615922417722122,1,1,0,-8,-25,3,-5,-1
1615922417723119,-1,-3,1,3,34,3,-2,1
1615922417723119,0,0,16,4,-35,-3,-1,-1
1615922417737190,-2,-2,-12,-1,-31,-3,-1,-4
1615922417737190,3,2,4,2,11,-3,1,2
1615922417744091,-3,-2,-2,-6,-21,19,-2,-2
1615922417744091,0,1,30,18,-7,-5,-1,-2
1615922417759026,-1,1,-7,-6,12,-4,-2,-2
1615922417759026,-3,-4,-5,-7,20,5,0,0
1615922417767003,-2,1,-14,-1,-17,-9,-1,-2
1615922417767003,-1,-2,-18,-2,-6,3,-1,-2
1615922417782960,0,-2,-9,-9,34,5,1,3
1615922417782960,-3,-1,7,2,-1,-10,0,-1
1615922417783958,-2,-4,0,2,12,-1,-2,-3
1615922417783958,-3,-2,-8,-10,-17,-5,-1,-1
1615922417796923,1,-2,6,5,22,-5,-2,-1
1615922417796923,-3,-2,-16,-8,-5,1,-1,-2
1615922417804903,-1,-3,9,11,18,-2,2,0
1615922417804903,-1,-3,-13,-11,-44,-9,-2,-1
1615922417819861,0,1,0,-6,-8,7,1,0
1615922417819861,0,-2,-1,5,17,-26,-1,-1
1615922417826842,0,1,-2,-5,-29,-3,-1,-4
1615922417826842,-3,-3,-11,-1,14,2,0,1
1615922417842801,1,2,11,5,0,-7,-2,0
1615922417842801,-2,-1,-8,3,19,9,-1,-1
1615922417843896,-3,-2,3,1,8,0,-1,-1
1615922417843896,-2,-5,-9,-7,-23,-6,-2,-4
1615922417864771,-3,0,-10,-11,-4,1,0,0
1615922417864771,-1,3,27,16,-24,-1,-1,0
1615922417865745,1,1,8,2,16,-3,-2,0
1615922417865745,1,0,-5,-1,5,1,1,0
1615922417879708,-2,-1,0,-11,-12,-5,-1,-1
1615922417879708,-1,-5,-11,-6,6,6,-3,-2
1615922417886689,0,-2,-14,0,3,-2,0,-1
1615922417886689,1,2,0,-11,-16,-1,0,2
1615922417901649,-1,-1,27,20,54,2,-1,-2
1615922417901649,-1,-5,-27,-25,-18,1,0,0
1615922417909647,0,8,29,24,-1,-2,-1,1
1615922417909647,-1,-5,-20,-16,25,1,-1,-2
1615922417916612,0,-1,-9,18,9,8,1,1
1615922417916612,-2,-1,1,-6,-27,-2,1,0
1615922417924590,-2,-3,-9,-4,20,1,-3,-1
1615922417924590,-1,-5,-12,-4,14,6,-1,-1
1615922417939547,3,4,23,10,-27,-5,-1,-1
1615922417939547,2,2,-3,-10,-25,-2,1,0
1615922417946529,0,1,12,0,-24,-1,1,-1
1615922417946529,-2,-3,-2,9,15,1,-1,-1
1615922417961489,0,-4,-19,-19,-31,-13,-2,0
1615922417961489,1,2,12,14,-2,-6,-2,1
1615922417970465,-1,-3,-1,-5,6,6,-2,-1
1615922417970465,0,1,-8,2,20,-2,-1,1
1615922417984475,-4,0,-7,-7,-7,-1,-2,-4
1615922417984475,2,-1,4,3,12,4,-1,0
1615922417992459,-1,-4,-4,1,-1,-1,1,-2
1615922417992459,-1,1,-3,3,37,4,1,-1
1615922417999435,-2,-2,-7,-8,-49,-3,0,-1
1615922417999435,-1,2,-4,-3,78,2,-1,-3
1615922418007463,1,-1,-2,-11,8,3,1,-1
1615922418007463,-1,0,30,12,-33,-5,0,1
1615922418021377,-2,0,7,8,26,3,-1,-1
1615922418021377,-3,-8,-12,-8,-25,-8,-2,-3
1615922418030353,0,4,10,1,14,-3,0,2
1615922418030353,-1,-1,-9,-14,-25,-4,-2,0
1615922418037334,0,-1,9,7,-44,-22,-4,-1
1615922418037334,-1,-1,-12,0,-13,6,-1,0
1615922418044320,-1,1,5,2,-10,-5,-2,-2
1615922418044320,-2,-3,-18,-13,-28,-7,-2,-1
1615922418059275,-3,-1,14,-1,-50,4,0,-1
1615922418059275,0,2,-18,-9,-5,0,0,1
1615922418067255,-2,-7,0,0,-1,-2,-2,-3
1615922418067255,3,5,4,2,4,1,0,0
1615922418082214,1,1,-6,-4,12,3,0,1
1615922418082214,-3,-5,1,4,-9,-1,0,1
1615922418090193,-2,3,-3,-6,-19,0,1,-1
1615922418090193,-3,-1,4,6,14,1,0,-3
1615922418105290,-1,-6,-14,-11,-10,-1,-1,0
1615922418105290,0,3,5,7,9,5,-1,-3
1615922418106206,3,1,6,-1,5,-18,0,6
1615922418106206,-3,-3,-25,-28,-38,-1,-1,-2
1615922418119172,-1,2,17,17,30,0,1,-1
1615922418119172,-4,-5,0,-6,-42,-3,-3,-4
1615922418127128,0,-1,-14,-4,-1,4,1,-1
1615922418127128,2,0,14,4,9,0,2,1
1615922418142084,-1,-4,-19,-8,17,2,0,-1
1615922418142084,0,2,15,-1,-17,-9,1,1
1615922418150063,-4,-5,-13,-4,-23,1,-3,-3
1615922418150063,2,4,9,7,4,-3,-3,-1
1615922418165023,-1,-1,-6,-1,8,4,-1,-1
1615922418165023,-2,-1,2,2,2,-1,0,0
1615922418166021,0,-3,-14,-10,-4,9,1,-1
1615922418166021,-1,-3,-5,8,17,-8,-1,-1
1615922418178986,3,0,0,14,3,7,1,1
1615922418178986,-2,2,-9,-9,38,12,-1,-1
1615922418186965,-4,-3,0,10,29,-5,-1,-1
1615922418186965,-5,-4,-8,-2,-4,1,-4,-2
1615922418201925,0,2,6,-1,-16,-4,-3,-1
1615922418201925,0,-2,3,-1,-5,-5,-2,-1
1615922418209903,0,0,-5,-3,7,3,-1,0
1615922418209903,-1,-3,1,3,-24,-2,0,-2
1615922418224863,0,-2,-6,-3,13,-2,0,-1
1615922418224863,-3,1,2,-1,16,-1,-3,-1
1615922418225861,-3,-2,-4,-2,-1,-3,-1,-3
1615922418225861,-2,-2,5,4,12,-1,-3,0
1615922418239828,0,2,-8,-9,3,1,-1,1
1615922418239828,0,-6,-7,-4,-2,-2,-1,1
1615922418246805,0,4,15,3,-29,-5,-3,-1
1615922418246805,-3,-5,-13,-6,31,2,-2,-2
1615922418261765,-2,2,26,0,-3,-6,-2,0
1615922418261765,0,1,2,15,-10,-4,-2,-1
1615922418269767,-4,-3,-13,-8,1,-1,-3,-3
1615922418269767,2,1,0,-6,-13,-7,0,-1
1615922418284703,-1,-3,2,-3,-31,9,-1,0
1615922418284703,-1,-3,-8,-3,15,-4,1,-1
1615922418292686,0,-5,0,-1,-38,-8,-2,-1
1615922418292686,-1,1,1,8,30,3,0,0
1615922418299663,3,4,2,-4,25,1,1,-1
1615922418299663,3,0,-7,2,2,0,0,2
1615922418306752,-2,0,14,5,-11,-2,-2,1
1615922418306752,-3,-4,8,-3,-10,2,0,-3
1615922418321605,-2,-2,-16,-3,-16,-26,-3,-2
1615922418321605,-2,0,3,-4,-13,3,1,-2
1615922418329584,2,6,-5,-2,-9,2,1,2
1615922418329584,-2,-2,-1,2,25,3,-3,-1
1615922418345542,1,3,21,6,4,6,2,-2
1615922418345542,-1,-1,2,-3,-18,-2,-2,-1
1615922418345542,-3,-7,-26,-3,29,0,0,-1
1615922418345542,0,1,27,9,-20,4,-1,-1
1615922418359529,-2,-3,-16,-9,-2,-6,-1,0
1615922418359529,-1,0,0,1,13,-4,-2,0
1615922418366485,-2,1,2,-2,6,1,-1,-3
1615922418366485,-1,0,2,-1,-8,-1,0,0
