timestamp,emg1,emg2,emg3,emg4,emg5,emg6,emg7,emg8
1615922422469356,0,1,2,5,15,13,1,0
1615922422469356,0,1,17,7,24,-9,-2,-1
1615922422477335,0,-1,-14,-8,-8,10,0,-1
1615922422477335,-3,-4,-6,-3,-30,-30,0,-1
1615922422492297,-1,-2,4,-2,-15,1,0,0
1615922422492297,0,1,15,6,-21,5,0,0
1615922422500273,-2,-1,2,2,45,9,-1,-2
1615922422500273,2,-4,-18,-7,-41,3,2,1
1615922422515233,1,2,0,1,-3,-9,0,-1
1615922422515233,-3,-3,-1,-3,-4,1,0,-2
1615922422516232,-2,-6,-20,-1,18,-11,-2,-2
1615922422516232,-3,-1,10,5,-12,-3,-3,-3
1615922422529223,-1,-2,1,-2,6,12,0,-1
1615922422529223,-3,-6,-8,-4,-15,-4,-3,-3
1615922422538172,1,-2,-14,-6,-19,-10,0,0
1615922422538172,1,4,10,1,18,1,0,-1
1615922422552170,0,2,-2,4,-2,1,-2,1
1615922422552170,-1,-2,-5,-1,27,-3,-2,-3
1615922422560807,-1,0,9,4,-10,-4,-3,0
1615922422560807,-2,-6,-9,-2,31,7,-3,-2
1615922422574770,-3,-4,4,-1,5,-4,-1,-4
1615922422574770,-1,5,18,2,-4,2,1,0
1615922422582772,0,0,0,-1,-11,-12,-1,-1
1615922422582772,-2,-4,-25,-8,-20,4,1,-2
1615922422589767,0,9,43,18,1,9,3,2
1615922422589767,-4,-9,-18,-9,-14,-18,-1,-2
1615922422597733,-1,1,-17,-10,10,8,0,-1
1615922422597733,0,-1,15,0,23,2,-1,0
1615922422611672,-1,-1,-11,1,-28,-2,1,1
1615922422611672,-2,-1,3,-6,10,4,0,-4
1615922422620647,-1,-1,-1,8,-18,-6,-3,0
1615922422620647,1,-3,-20,-7,13,-2,-1,-1
1615922422635607,-3,3,9,-1,46,2,-2,-2
1615922422635607,-1,-4,-10,-1,18,10,-1,0
1615922422636605,0,0,16,-3,-37,-10,-2,-1
1615922422636605,-3,-3,-9,5,44,1,-1,-1
1615922422649671,-2,-4,3,-2,6,0,-2,-2
1615922422649671,1,5,1,-1,-26,6,-2,0
1615922422657549,-1,-2,-11,-4,2,-10,0,-2
1615922422657549,-1,-3,-16,-1,-20,-1,-2,1
1615922422672536,-1,2,-2,-2,-14,-7,-1,0
1615922422672536,-2,-1,0,4,-3,-3,-1,-1
1615922422680626,0,-3,-12,-5,-1,6,1,0
1615922422680626,-1,-2,-4,-2,-46,-11,-1,-1
1615922422694592,2,3,36,7,76,6,-4,-2
1615922422694592,1,-2,-18,-5,-18,-20,-3,1
1615922422710549,-1,-1,20,3,-18,-8,-3,-1
1615922422710549,1,3,16,3,-7,4,1,-2
1615922422712519,-2,-5,-35,-14,9,0,-1,-2
1615922422712519,0,-1,11,1,19,8,-5,-3
1615922422717505,-5,-1,4,3,-10,-7,-2,-3
1615922422717505,1,5,4,-5,9,-5,-2,1
1615922422732496,-3,-4,-15,0,-16,-2,-1,0
1615922422732496,0,1,4,-2,-26,1,0,-2
1615922422740443,-1,-1,-22,-5,-13,11,3,-1
1615922422740443,-3,-1,5,5,33,-4,-2,-1
1615922422754505,-2,-4,-11,-18,-110,-9,-1,-3
1615922422754505,1,1,12,10,21,6,4,2
1615922422763076,1,4,11,-3,4,7,-1,0
1615922422763076,1,3,18,8,-27,-6,1,0
1615922422770058,-1,-7,-17,-4,6,3,-1,0
1615922422770058,1,0,11,-6,10,0,-2,-1
1615922422778036,2,1,13,3,-11,-1,1,0
1615922422778036,-3,-3,-10,-6,-24,5,1,0
1615922422792027,-3,-3,-11,-1,3,-1,-1,-2
1615922422792027,0,-1,-2,4,6,15,1,1
1615922422800003,-3,-2,1,3,20,-5,-1,-3
1615922422800003,0,-8,-11,-6,-5,1,-1,-1
1615922422814941,-1,3,7,3,-59,-10,-2,-1
1615922422814941,-3,-3,-2,-3,4,5,1,0
1615922422822938,-2,-3,-3,-5,-5,-6,-1,-1
1615922422822938,-1,-2,-15,-1,-18,-2,-3,-1
1615922422829898,-2,-2,2,-3,-24,-13,-3,-1
1615922422829898,-3,-1,-2,1,34,-2,-3,-1
1615922422837902,-3,-8,-17,0,23,0,-4,-3
1615922422837902,0,3,8,2,-13,-6,-1,1
1615922422851839,1,2,1,-1,36,2,2,0
1615922422851839,-2,-3,-20,-4,18,-8,-2,-2
1615922422859817,1,0,4,5,11,-1,0,1
1615922422859817,-2,-1,-10,-2,61,11,-1,-1
1615922422874778,1,-6,-13,-7,6,-9,1,0
1615922422874778,-3,-4,-6,-3,14,7,-1,-3
1615922422882761,-1,-1,3,3,-17,-5,-2,-1
1615922422882761,-2,-5,1,0,-6,-4,0,-3
1615922422898738,3,1,-6,-6,-3,-6,-1,0
1615922422898738,0,-1,-12,-7,-21,6,-2,-1
1615922422899735,-2,1,11,1,2,7,2,0
1615922422899735,-1,1,4,-1,-38,-10,-1,-2
1615922422911806,-4,-8,-1,-3,21,1,0,-2
1615922422911806,-2,2,-5,3,-38,-4,1,-1
1615922422920782,-1,-4,-9,-5,11,2,-3,1
1615922422920782,0,3,17,4,-9,-2,0,-1
1615922422934764,0,1,2,2,22,0,0,-2
1615922422934764,-1,-4,-1,-1,13,2,0,-1
1615922422942771,1,0,-3,-2,50,7,0,-1
1615922422942771,-1,0,0,-5,-33,1,-1,-1
1615922422958801,0,-1,-2,1,3,-4,-1,-1
1615922422958801,0,1,25,7,-10,-3,0,0
1615922422958801,1,-3,-17,-3,16,5,2,2
1615922422958801,0,3,2,1,-2,-4,0,-1
1615922422971793,-3,-6,-1,-10,4,-6,-2,-2
1615922422971793,0,5,25,13,-12,-1,-2,-3
1615922422980768,0,-1,-9,-4,13,-2,2,0
1615922422980768,-2,0,-4,-6,-18,2,-1,1
1615922422994732,1,4,-7,1,17,10,2,3
1615922422994732,-1,-5,-9,-6,-7,0,-1,0
1615922423010665,2,7,12,8,-18,-6,1,0
1615922423010665,-1,1,-5,-9,13,-5,-3,-2
1615922423018643,1,5,7,3,48,5,-1,-1
1615922423018643,-3,-4,-20,-7,25,8,-1,-2
1615922423019641,0,-2,12,5,-21,-3,-2,-2
1615922423019641,2,0,-4,-1,-4,3,1,1
1615922423032628,0,-2,-8,6,-2,-5,-3,-2
1615922423032628,0,5,3,-1,-7,5,1,0
1615922423040584,-4,-4,-4,-8,-23,5,-1,-1
1615922423040584,-3,-4,-6,-8,-25,-7,0,-1
1615922423054551,-4,1,8,7,-28,-3,-3,-1
1615922423054551,-2,-7,-18,-10,-55,4,-1,-2
1615922423062526,2,5,21,4,16,-1,-1,-1
1615922423062526,-1,-3,-1,2,-10,-7,-3,-1
1615922423078484,-1,-4,-25,-9,-44,-2,0,-1
1615922423078484,-1,1,27,14,15,-1,1,0
1615922423079481,0,4,-6,-1,0,-2,-2,0
1615922423079481,-3,-6,-18,-5,26,6,-2,-2
1615922423092553,-2,-1,8,-2,-18,2,-2,-3
1615922423092553,-2,-5,-6,-1,-9,-24,-2,-2
1615922423100425,-2,-3,-6,-7,-14,0,0,-1
1615922423100425,0,-3,-7,0,36,6,2,0
1615922423114388,2,6,20,12,-8,-5,1,0
1615922423114388,-4,-1,-12,-10,-5,-1,1,-2
1615922423122474,-2,-1,0,-4,-68,-9,-2,-2
1615922423122474,-2,-7,-16,0,28,-3,-2,2
1615922423137327,0,2,15,0,12,0,-1,1
1615922423137327,2,2,-9,-6,26,-1,-2,-1
1615922423138324,1,-3,8,11,4,-7,-2,-1
1615922423138324,-2,-3,-1,-4,-26,2,-2,-4
1615922423152286,0,-3,-8,-2,20,1,0,-1
1615922423152286,0,2,-1,-6,-2,-2,1,1
1615922423160195,-1,-4,-18,-7,24,-3,-1,-3
1615922423160195,1,6,21,11,5,3,-1,1
1615922423174158,-2,-3,-6,-3,23,2,-1,0
1615922423174158,1,1,13,1,-13,4,2,-1
1615922423183161,-1,-3,-12,-8,-6,1,2,2
1615922423183161,1,-1,17,13,-1,-1,0,-2
1615922423198094,-4,3,-6,-4,-6,0,-2,-1
1615922423198094,-1,-5,-23,-6,3,-2,-1,2
1615922423198094,-1,3,20,3,43,11,1,-1
1615922423198094,-1,1,0,4,-20,-14,-5,-2
1615922423212057,-2,-6,-13,-2,22,13,4,0
1615922423212057,-1,-5,16,11,24,12,0,-1
1615922423221033,0,0,-2,-9,-14,2,-4,-2
1615922423221033,-2,-2,1,-9,-38,-5,0,-2
1615922423235001,2,2,24,9,-1,5,1,0
1615922423235001,-2,-2,-19,-6,-9,-10,-3,-1
1615922423242979,-3,-2,10,7,-8,-7,-1,-2
1615922423242979,0,0,-2,0,86,18,2,1
1615922423257956,1,-1,-7,-12,-52,-11,-4,-1
1615922423257956,1,0,1,10,4,4,1,2
1615922423258934,-2,-1,-8,-3,47,4,-1,-1
1615922423258934,-2,-6,-2,-1,-28,2,-1,-3
1615922423271899,0,-1,8,-3,13,0,0,0
1615922423271899,0,4,9,0,-4,-6,-2,0
1615922423280874,-1,-3,-7,-3,-45,3,0,-1
1615922423280874,-3,-3,-10,-8,18,5,2,-1
1615922423294837,-3,-3,-1,-6,-2,-5,-1,-1
1615922423294837,-1,0,7,-3,-46,-10,0,0
1615922423302814,-2,1,-10,3,4,9,0,-1
1615922423302814,0,-2,-9,-3,19,-12,1,1
1615922423317775,1,4,18,10,3,2,-1,0
1615922423317775,-3,1,-4,-3,28,12,-1,-1
1615922423318772,0,-2,-9,-6,-4,3,-1,1
1615922423318772,-1,1,-6,5,-3,-1,1,0
1615922423331737,-2,-1,-4,2,-12,-2,-1,-1
1615922423331737,0,-4,2,3,16,-3,0,-2
1615922423340713,-1,-3,-21,-12,-8,-5,0,0
1615922423340713,2,6,38,11,-57,-4,-1,-1
1615922423354680,-3,-8,-23,-3,35,4,-2,-3
1615922423354680,1,-2,-7,-3,-3,3,2,-2
1615922423363655,-2,-5,7,0,-18,-17,-4,-2
1615922423363655,2,3,10,4,37,1,-4,-1
1615922423377617,0,-4,-11,-7,13,3,-4,-1
1615922423377617,3,2,6,0,-27,-22,-3,0
1615922423385606,-1,-2,-9,-2,7,-8,-4,-1
1615922423385606,-1,-2,-10,-8,-50,-9,-2,-1
1615922423392582,-3,-2,-2,4,4,0,1,-1
1615922423392582,-2,-3,-10,-5,-6,-1,-3,0
1615922423401553,0,-1,3,-4,-27,-5,1,1
1615922423401553,-1,2,15,4,12,1,-2,1
1615922423415516,-1,-1,-9,3,-4,-2,1,0
1615922423415516,0,1,8,-1,-16,10,0,0
1615922423423494,0,-3,-1,9,49,3,-1,-2
1615922423423494,0,3,-2,-2,2,-6,-2,-1
1615922423446434,0,-1,-3,-8,-28,4,2,0
1615922423446434,-2,2,15,-1,9,19,-3,-3
1615922423447430,-1,-1,-7,-1,7,-25,-4,-3
1615922423447430,-2,-4,-12,-3,-24,-1,1,-1
1615922423452422,0,0,15,3,-16,3,0,-3
1615922423452422,-1,-2,-15,-5,-12,-16,0,-1
1615922423461397,-2,2,11,-3,-21,6,1,-1
1615922423461397,-1,2,3,1,9,1,0,0
1615922423474362,-2,-4,-14,-4,2,-8,-3,-1
1615922423474362,2,1,-9,5,35,6,0,1
1615922423483373,0,-2,16,5,22,-2,-1,-2
1615922423483373,-3,-1,1,-5,-28,-6,1,1
1615922423497325,-1,-3,-8,-1,7,16,-1,-1
1615922423497325,-2,-1,0,-2,0,7,0,-2
1615922423506277,-2,-1,-4,-9,-37,0,-3,-1
1615922423506277,-1,-3,-6,2,59,1,0,1
1615922423512261,-1,0,3,-1,41,0,-4,-1
1615922423512261,-3,-5,-18,-1,2,-3,0,0
1615922423521237,-1,3,23,1,-51,3,2,1
1615922423521237,0,-1,-9,-3,11,-2,0,-1
1615922423535200,-2,0,-4,-5,-6,-6,-2,-1
1615922423535200,-2,-5,-12,-2,0,-14,-3,-1
1615922423543178,0,5,13,9,44,13,1,-2
1615922423543178,0,-4,-9,3,4,-2,-1,-1
1615922423565625,2,2,10,-1,-34,-10,0,0
1615922423565625,-1,-6,-9,-11,36,3,-3,-3
1615922423567620,1,1,1,2,35,6,-3,-2
1615922423567620,-1,0,10,-2,-7,4,-2,-3
1615922423571609,0,1,3,8,-23,-5,0,-1
1615922423571609,1,1,16,3,-9,1,0,1
1615922423581582,-1,-1,-7,-3,5,-12,-2,-1
1615922423581582,-1,-4,-9,-1,17,-3,-1,1
1615922423595545,2,4,3,-1,-4,-2,0,2
1615922423595545,-1,-1,1,3,-2,0,-1,-2
1615922423609507,-2,1,-16,-3,-18,6,1,0
1615922423609507,-1,-2,15,-3,-19,0,-2,-1
1615922423617486,-2,-6,2,3,4,-8,0,-3
1615922423617486,3,7,3,4,-16,12,-1,2
1615922423626462,-1,-4,2,-1,-12,-19,-3,0
1615922423626462,0,-2,-7,-9,-1,1,-2,-2
1615922423632446,-2,-1,-12,2,15,3,0,0
1615922423632446,-2,2,9,-6,19,-6,-1,0
1615922423641422,-3,-2,28,-3,-89,2,-1,-3
1615922423641422,-2,0,-23,-2,1,0,-2,-1
1615922423654388,1,-1,10,0,12,1,-2,-1
1615922423654388,-4,-4,-8,-2,-19,-12,1,-3
1615922423663871,3,2,-22,2,84,12,1,1
1615922423663871,-3,-2,22,0,-13,-1,0,-3
1615922423676837,0,2,-2,-2,-16,-8,0,0
1615922423676837,-2,-3,8,-1,-33,-11,-2,-1
1615922423693791,-2,-5,-18,-2,8,4,0,-1
1615922423693791,1,-2,-14,-1,19,10,0,1
1615922423694789,-5,-2,-7,-5,16,-4,-2,-3
1615922423694789,-2,1,12,6,-15,4,-1,1
1615922423700773,-1,-1,-3,-3,-1,-10,-1,-1
1615922423700773,-2,-6,-18,-7,-26,-1,-1,-4
1615922423714735,3,0,13,4,-26,5,2,1
1615922423714735,2,6,7,-2,9,-7,-4,-1
1615922423723711,0,-1,-10,-6,-16,-4,0,0
1615922423723711,-1,2,10,-3,14,2,0,0
1615922423736678,-3,-3,6,1,-18,-3,-1,-2
1615922423736678,0,-1,-6,0,-28,-5,-4,0
1615922423745666,-1,-2,-7,-2,61,7,-1,0
1615922423745666,-1,2,-3,-3,-55,-27,-2,-1
1615922423751659,-1,-2,5,3,32,-3,-1,0
1615922423751659,-1,-9,-9,-9,-56,-10,-2,-3
1615922423768594,-1,5,17,9,8,5,-1,0
1615922423768594,-1,-3,-4,-6,17,-1,-1,-1
1615922423774576,-1,2,-8,2,-91,-10,0,-3
1615922423774576,0,2,0,1,63,13,4,3
1615922423783551,-2,-7,-7,-3,-17,2,2,-1
1615922423783551,-1,-1,6,3,-19,4,-5,-3
1615922423797514,-1,-4,0,-6,11,-3,-2,-1
1615922423797514,-1,-5,-26,-3,-1,5,1,-1
1615922423806490,1,-1,10,3,-28,7,-2,-1
1615922423806490,2,5,0,6,9,-12,1,2
1615922423820478,-3,-4,-26,-19,2,1,1,-1
1615922423820478,-1,2,30,16,-24,-7,-1,0
1615922423822447,-1,-2,-10,-8,17,9,-2,0
1615922423822447,0,-1,-12,-3,-8,0,1,-1
1615922423834415,0,4,4,3,-28,-4,-1,-2
1615922423834415,-1,-1,-3,-10,3,-5,1,-2
1615922423843400,-3,-1,4,4,-24,-10,1,1
1615922423843400,-1,-1,-1,-6,-5,12,-1,1
1615922423857374,-1,-3,-2,-1,14,0,1,0
1615922423857374,-1,-3,-3,-2,13,7,-2,-3
1615922423866354,1,-3,-13,-6,-40,-38,-3,-2
1615922423866354,-2,-1,-11,6,29,8,0,0
1615922423880293,1,2,11,0,25,9,0,1
1615922423880293,-4,-4,-9,-5,1,-12,-4,-3
1615922423896386,-2,-2,-21,-6,-2,6,-1,-1
1615922423896386,0,2,13,1,-8,-10,-5,-2
1615922423897411,-3,-4,6,0,7,-13,-2,-1
1615922423897411,1,2,-8,0,90,5,-1,0
1615922423903368,-1,-1,0,-7,-81,1,-1,-1
1615922423903368,-1,-1,-1,0,13,0,0,0
1615922423917350,-4,-5,-14,-5,21,10,0,-3
1615922423917350,-2,-1,7,-7,-21,7,1,-1
1615922423926306,-1,2,1,2,44,5,-3,-3
1615922423926306,0,-1,4,5,26,0,-1,1
1615922423941266,1,4,9,-5,-51,-2,-2,1
1615922423941266,1,-2,-21,-9,1,6,0,0
1615922423942269,0,2,9,9,22,-5,0,1
1615922423942269,-2,-5,-8,-4,1,2,0,-1
1615922423954469,0,1,-8,-2,27,1,-2,-1
1615922423954469,0,0,14,10,-14,-4,-3,0
1615922423969327,-2,0,6,3,26,1,0,0
1615922423969327,-2,-2,2,-1,-28,-2,-2,-1
1615922423977310,0,-2,-8,0,21,3,-1,0
1615922423977310,0,1,3,5,13,-17,0,-1
1615922423986283,2,1,-7,-4,19,7,1,3
1615922423986283,-1,-2,2,3,-14,0,1,-1
1615922424001267,-1,0,-5,0,12,3,-2,0
1615922424001267,-1,-2,13,-5,-88,-14,0,-1
1615922424002285,-2,-1,3,0,60,14,0,-2
1615922424002285,0,1,-14,-8,-29,-10,-1,-1
1615922424014245,1,1,1,0,-43,-5,-1,-1
1615922424014245,0,-1,-1,4,56,7,1,1
1615922424023183,1,-1,-3,-1,-8,-9,0,0
1615922424023183,-2,1,13,-5,-27,-2,0,-3
1615922424046123,-1,-3,-10,-3,6,3,-2,-2
1615922424046123,-1,0,10,14,22,16,-1,-1
1615922424047119,-2,1,0,-4,-29,-10,-1,-2
1615922424047119,-2,-1,-2,-2,23,8,0,-1
1615922424061082,-2,0,-2,-1,15,-5,-1,0
1615922424061082,-3,-7,-14,-10,42,14,-2,0
1615922424063077,2,3,-1,5,-16,1,-3,-1
1615922424063077,-2,-3,4,2,-12,-10,1,-1
1615922424075044,0,-1,2,-1,26,1,0,-1
1615922424075044,-1,-2,-16,-2,-32,-3,-2,-2
1615922424084021,0,3,16,8,16,-1,0,-1
1615922424084021,-1,-2,1,-6,-5,-10,-3,-1
1615922424096986,-2,-6,-13,-4,-30,16,2,1
1615922424096986,-1,2,6,2,13,2,3,1
1615922424105964,0,2,9,-6,-45,-6,-1,-1
1615922424105964,-2,-2,-7,9,-20,16,0,-1
1615922424119926,0,-1,-4,-10,13,-3,-1,-1
1615922424119926,1,2,21,3,-20,2,0,-1
1615922424126907,-5,-11,-27,-12,-47,-16,0,-2
1615922424126907,-1,2,12,7,19,1,0,-1
1615922424134885,1,0,-11,-5,-9,-2,-1,1
1615922424134885,-1,-2,-3,1,-23,-15,-2,-1
1615922424143861,-1,-3,-11,-2,19,6,1,2
1615922424143861,-1,-2,3,-4,7,13,1,-2
1615922424156829,-4,-2,-4,1,-13,-15,-3,-2
1615922424156829,0,1,13,5,-57,-6,0,-2
1615922424165824,-1,-4,6,-2,6,1,-1,-1
1615922424165824,1,-3,-21,-5,32,-2,-1,0
1615922424180789,-1,1,22,3,-12,-7,-2,-2
1615922424180789,-3,-4,-28,-12,42,8,3,0
1615922424186747,-2,-2,14,13,24,-6,0,-1
1615922424186747,1,3,3,-6,25,2,0,0
1615922424194725,1,1,5,8,41,13,2,0
1615922424194725,1,2,-4,0,18,-15,-3,-1
1615922424203702,-1,-2,3,-3,-20,7,-1,-3
1615922424203702,-2,-7,-8,2,21,-16,-2,1
1615922424216690,1,3,14,2,-17,-2,1,1
1615922424216690,-1,-4,-13,-6,-4,1,-1,1
1615922424226640,0,1,1,-1,-1,-4,0,-1
1615922424226640,-1,-3,-2,-3,-77,-1,-1,-1
1615922424239605,-1,0,-1,-3,10,1,-2,-1
1615922424239605,-3,-3,-6,-5,-6,-14,0,1
1615922424248581,0,-2,-7,-8,-21,-1,-3,-2
1615922424248581,-3,1,3,3,27,1,-1,-4
1615922424254673,1,-2,-14,-3,4,-14,-1,1
1615922424254673,1,-2,3,-1,-38,-2,-1,-1
1615922424263541,-1,0,-3,5,15,6,-1,-4
1615922424263541,1,3,-2,-10,7,-18,-1,1
1615922424277504,-2,-5,-4,2,5,-9,-4,-2
1615922424277504,3,2,19,5,34,13,0,1
1615922424286505,-2,-4,2,-2,-53,4,1,0
1615922424286505,-2,-2,-18,-14,-52,10,0,-4
1615922424299470,2,4,42,15,3,3,1,1
1615922424299470,-1,-3,-5,-5,13,-7,-4,-1
1615922424308544,-1,1,-6,-9,23,-3,0,-1
1615922424308544,-1,-4,7,7,-7,1,-1,-2
1615922424314527,-1,2,-10,-9,-10,-1,-1,0
1615922424314527,-3,-3,-4,-5,-30,5,0,-2
1615922424323504,0,4,18,11,-5,7,0,1
1615922424323504,2,2,-1,-2,-19,-9,1,2
1615922424337466,-3,-4,-20,-10,8,5,3,-1
1615922424337466,-1,-3,27,13,61,6,-1,-2
1615922424353423,-1,-1,-28,-11,-43,0,-1,-1
1615922424353423,-1,2,17,10,17,-3,-3,1
1615922424359436,-1,-3,-12,-5,-36,-9,-1,0
1615922424359436,-2,1,-7,-6,2,16,-1,-1
1615922424368384,0,3,20,8,19,-10,-3,1
1615922424368384,-1,-4,-10,2,26,3,0,-1
1615922424374392,4,11,20,6,-28,-12,-4,-2
1615922424374392,-2,-4,-32,-6,12,10,-1,-1
1615922424383344,0,-2,18,4,-24,-6,-2,-1
1615922424383344,-3,-2,-6,2,28,5,-2,-1
1615922424397306,-2,-4,-2,-4,9,-2,-1,0
1615922424397306,-1,-5,-5,-6,-44,1,1,-3
1615922424406282,-1,2,-6,7,66,10,2,1
1615922424406282,-1,1,-2,-7,-18,3,-2,-1
1615922424419271,-1,-4,-1,1,3,18,2,0
1615922424419271,-1,1,-14,-11,-5,-7,-2,-2
1615922424428351,-2,-3,6,-7,-5,-1,-1,-3
1615922424428351,-1,-1,1,3,22,-5,-2,-2
1615922424434335,-6,-4,-8,2,33,19,-1,-2
1615922424434335,-2,-8,-21,-4,5,-4,-1,-1
1615922424451290,-1,0,15,0,16,-3,-2,-2
1615922424451290,1,0,1,-4,-24,0,2,1
1615922424457426,0,-1,-10,2,-6,-2,0,-3
1615922424457426,0,1,-2,-9,56,-4,-1,0
1615922424466404,0,-2,3,14,-2,-5,0,0
1615922424466404,-3,-3,7,-1,-44,-7,-4,-3
1615922424479370,-2,-3,1,-6,15,-10,-1,-2
1615922424479370,-3,-3,-9,6,-11,-8,-2,-1
1615922424488391,1,2,-15,-11,-32,-8,1,1
1615922424488391,0,4,11,2,19,15,3,-1
1615922424494329,-2,-6,-6,-2,-5,-24,-7,-3
1615922424494329,0,3,4,4,-31,-6,-1,0
1615922424503304,-3,-5,-15,-4,-13,1,-2,-1
1615922424503304,-1,1,3,-4,10,3,0,-1
1615922424526354,0,-1,-7,-6,29,-1,3,1
1615922424526354,-1,3,9,10,-1,-3,-1,-1
1615922424527241,-2,-3,-23,-16,-8,-6,0,1
1615922424527241,-2,-1,-10,4,22,1,-1,1
1615922424539209,-2,-2,15,-4,-35,2,-2,-2
1615922424539209,1,3,17,-4,-47,-5,-1,-1
1615922424548344,-3,-7,-27,-5,2,-21,-4,-4
1615922424548344,0,3,4,6,-22,-6,-1,0
1615922424554225,-4,-5,-16,-9,-20,-9,0,2
1615922424554225,0,5,35,12,-24,1,-1,1
1615922424563197,0,-1,-19,-5,34,2,-5,-1
1615922424563197,0,3,16,2,5,2,2,0
1615922424577216,3,2,9,7,9,3,1,0
1615922424577216,-2,-3,-15,-14,-9,-4,-1,-2
1615922424586135,0,3,18,7,10,-7,-1,-1
1615922424586135,0,-2,1,7,26,9,-2,-1
1615922424600126,0,3,-6,1,-17,-15,-3,2
1615922424600126,-1,-3,-11,-2,18,3,2,-2
1615922424609100,-1,2,6,-3,23,6,-1,0
1615922424609100,-2,-7,-20,-6,-27,-11,-3,-4
1615922424615060,-1,5,15,0,7,4,0,-3
1615922424615060,-4,-8,-28,0,-15,1,-2,0
1615922424624210,0,5,31,6,30,-4,1,-2
1615922424624210,-1,-3,-16,-11,17,-2,0,-1
1615922424637068,-5,-7,-8,-4,-15,-2,-1,-5
1615922424637068,1,3,13,5,-4,-4,1,3
1615922424646044,1,1,22,6,-44,5,1,0
1615922424646044,-1,-5,-10,-7,99,20,1,1
1615922424660032,0,-1,-1,6,-14,-10,-1,0
1615922424660032,-1,-3,-5,-15,-22,-12,-3,-4
1615922424668989,0,-3,-2,1,-19,1,-1,1
1615922424668989,-2,-1,6,3,-47,-11,-2,-1
1615922424674967,0,0,-8,4,48,8,0,0
1615922424674967,-1,0,22,4,-21,-5,-2,-1
1615922424683944,-1,0,-13,-5,9,0,-3,0
1615922424683944,-1,-5,-20,-6,25,7,-2,-3
1615922424696909,-1,2,13,-1,-31,-1,-1,-1
1615922424696909,2,-1,4,6,15,-9,-2,0
1615922424705885,-3,-8,-20,-15,-10,12,2,-3
1615922424705885,0,-2,1,2,-13,2,-2,0
1615922424719873,0,3,-8,-10,-49,-10,1,-1
1615922424719873,-1,5,11,3,18,4,-3,-3
1615922424728824,-3,-3,-8,-8,-71,-1,0,-1
1615922424728824,3,4,4,4,13,0,0,0
1615922424734807,0,0,3,4,8,2,-2,-1
1615922424734807,0,-1,-7,2,-8,11,3,-2
1615922424743782,0,-2,0,-4,-3,4,-1,0
1615922424743782,-3,-2,2,-5,-56,-17,-3,0
1615922424757746,0,-1,7,1,19,5,-2,-1
1615922424757746,1,2,5,8,9,-1,1,1
1615922424765724,-2,-4,-20,-2,34,-2,0,-2
1615922424765724,0,-3,20,-3,-25,3,0,-1
1615922424779687,1,1,2,3,28,-16,-4,-1
1615922424779687,-4,-7,-24,-13,-14,3,0,-1
1615922424788663,-3,0,2,7,37,-1,0,-2
1615922424788663,-2,-3,-4,-1,4,-15,-2,-1
1615922424803623,-3,1,0,3,-24,11,0,-1
1615922424803623,-2,1,1,2,87,11,2,-3
1615922424805619,-2,-2,-7,-1,-68,-5,-4,-2
1615922424805619,0,0,10,-1,-16,0,0,0
1615922424817604,0,-4,-9,-1,15,4,1,1
1615922424817604,-1,1,-1,-1,14,6,-2,-1
1615922424826591,-2,-8,-11,-9,-4,-6,-1,-3
1615922424826591,1,10,27,19,-12,-6,0,1
1615922424855739,-4,-6,-14,-6,-11,6,0,-2
1615922424855739,-1,-2,5,-3,2,2,-1,2
1615922424857635,-2,0,9,-3,-18,-7,-1,-1
1615922424857635,1,-8,-33,-8,5,3,1,1
1615922424863618,3,1,6,9,-18,-2,-1,-1
1615922424863618,0,1,4,-4,-9,-9,-3,-1
1615922424865637,0,1,1,-1,4,-6,0,0
1615922424865637,-3,-1,-9,-4,25,5,-3,-3
1615922424877584,-4,-4,-11,-4,-9,7,-1,-2
1615922424877584,0,-1,30,7,-11,-10,-3,-1
1615922424886561,5,7,-6,-1,51,23,4,2
1615922424886561,-2,-2,2,-3,-48,-16,0,-3
1615922424899523,-2,-1,-6,-2,-24,2,-1,-2
1615922424899523,2,2,5,4,-7,-6,-2,-1
1615922424908540,1,3,2,6,-10,2,0,1
1615922424908540,-4,-6,-2,-3,18,1,-1,-2
1615922424923458,1,-2,-15,-5,13,-7,-1,0
1615922424923458,-1,1,5,-4,-44,-8,-2,0
1615922424925478,1,-1,28,13,-5,-6,-3,0
1615922424925478,-3,-1,-14,-8,-13,-5,-1,-1
1615922424937421,-2,-3,-1,-4,34,-1,-1,0
1615922424937421,-2,-5,-17,1,27,13,-1,-2
1615922424946428,0,4,8,-4,24,-4,-2,0
1615922424946428,2,4,9,5,10,3,1,1
1615922424959362,0,-2,10,4,29,5,-3,-2
1615922424959362,1,-1,-17,-2,-21,-12,0,-2
1615922424968338,-2,-3,-15,0,40,6,-2,-2
1615922424968338,-2,-5,-2,-8,-52,-12,1,0
1615922424983298,4,7,11,7,35,-1,0,2
1615922424983298,-3,-6,-22,-8,-11,0,0,-2
1615922424985293,-4,-4,-2,-4,-10,-6,-2,-2
1615922424985293,0,0,-15,-2,13,1,0,-2
1615922424997285,-2,-2,8,3,-26,-5,-1,-1
1615922424997285,1,3,2,-5,-2,3,-2,0
1615922425006237,-3,-4,-3,7,2,-23,-4,-2
1615922425006237,4,6,19,2,-14,-5,-1,2
1615922425019202,-5,-5,-9,-6,0,9,-1,-3
1615922425019202,-3,-8,-2,-3,5,1,-2,-3
1615922425028179,2,0,-16,-4,-3,1,0,0
1615922425028179,0,4,46,13,11,-4,-4,-2
1615922425043158,-1,-1,-10,-9,-18,3,-1,-2
1615922425043158,0,2,9,4,22,2,-1,-2
1615922425045134,0,-2,4,1,-19,-7,0,-3
1615922425045134,-2,-3,-13,-1,32,8,-1,-1
1615922425057200,1,-1,4,-1,-55,-3,1,0
1615922425057200,-1,0,-13,-9,36,-18,-2,-1
1615922425066582,0,-1,23,-2,-13,0,-3,1
1615922425066582,-2,-1,-6,4,38,13,-1,-1
1615922425079572,-1,2,2,-7,-10,-9,-1,0
1615922425079572,-2,-3,-16,1,-14,-7,-3,-1
1615922425088530,-1,-1,4,-2,-8,1,0,-1
1615922425088530,2,1,-3,-2,-56,-7,0,-1
1615922425103485,-3,-7,-14,-7,13,7,-3,-2
1615922425103485,-1,1,16,8,-8,1,2,0
1615922425105481,-3,-2,-20,-3,12,2,-3,-3
1615922425105481,-1,-2,-9,-3,-18,0,-2,1
1615922425117476,0,0,8,2,17,-23,-1,-1
1615922425117476,-2,-9,-16,-7,-64,-7,-2,-2
1615922425126422,0,0,-2,-4,-3,5,1,-1
1615922425126422,1,0,-15,-2,38,13,1,0
1615922425156415,-1,3,37,6,-16,-1,0,0
1615922425156415,-1,1,9,8,29,5,2,1
1615922425157340,-1,-2,-4,-7,-6,-1,-2,-2
1615922425157340,-2,1,1,-8,3,-4,0,-1
1615922425163324,0,-1,1,3,-2,-8,-1,0
1615922425163324,-1,2,-14,-6,7,1,-1,1
1615922425165318,-1,-2,-8,0,-8,-11,1,0
1615922425165318,-1,-5,2,-1,44,0,0,-1
1615922425176799,0,-3,-27,-8,26,9,0,0
1615922425176799,0,2,36,9,-26,-3,-1,-1
1615922425185774,-3,-3,-10,3,23,8,2,-2
1615922425185774,-4,-6,-13,-7,-44,-7,-2,-3
1615922425199736,-1,0,-9,-7,1,-2,0,-2
1615922425199736,-2,-2,2,0,0,7,0,-1
1615922425208711,-2,1,-3,-6,16,2,-1,-2
1615922425208711,0,-4,0,-1,-4,2,1,-1
1615922425230654,-1,-1,-8,-4,-58,2,-2,0
1615922425230654,0,-1,-6,-5,20,3,-1,-1
1615922425232648,3,1,-4,0,16,16,1,3
1615922425232648,-2,-3,4,-4,-99,-22,-3,-2
1615922425237634,-1,-5,-8,8,127,5,-3,-1
1615922425237634,-1,6,7,-6,-5,13,0,0
1615922425246610,0,1,7,10,19,-5,-1,0
1615922425246610,-1,-2,-3,-7,19,2,-1,-4
1615922425259608,-2,-3,-13,-1,-30,6,0,-2
1615922425259608,1,-3,-7,-2,-7,-9,-1,1
1615922425268582,0,0,14,4,29,5,2,-2
1615922425268582,-2,-2,-5,-1,33,1,1,-1
1615922425283544,0,0,-3,-9,-74,-9,0,0
1615922425283544,0,1,-4,-6,-25,-21,-4,-3
1615922425285537,0,-1,1,2,51,8,-4,-2
1615922425285537,0,-1,0,-1,3,1,-1,0
1615922425297530,-1,1,13,7,32,6,0,-2
1615922425297530,-2,-7,-15,1,-16,9,-1,-1
1615922425306481,-3,-3,7,-2,-11,-5,-1,-2
1615922425306481,1,7,-3,-3,4,0,-1,-1
1615922425328447,3,3,12,16,18,3,1,1
1615922425328447,0,0,21,5,-24,-6,0,-1
1615922425330417,-2,-3,-26,-9,-1,3,-2,1
1615922425330417,-1,-1,-8,-2,-25,8,0,-3
1615922425343382,0,2,-3,1,-17,7,2,3
1615922425343382,-1,-2,7,0,-6,-5,1,-1
1615922425346375,-1,1,6,0,-38,-5,-2,-2
1615922425346375,0,3,9,4,-12,2,1,2
1615922425357345,0,-1,-7,-1,37,-2,0,-2
1615922425357345,-2,0,-5,-1,9,5,-2,-1
1615922425365892,-1,-9,-21,-7,-29,-7,1,-2
1615922425365892,0,8,28,4,25,-1,-3,-1
1615922425379874,-3,-2,10,2,-9,0,0,-3
1615922425379874,-1,0,-14,-3,18,9,2,-1
1615922425388827,-1,-4,-10,-1,-58,-5,-1,0
1615922425388827,0,-5,4,-1,-51,-39,-4,-2
1615922425410767,-4,-5,0,-4,13,8,1,-3
1615922425410767,-1,4,-8,-5,-7,3,-3,0
1615922425412763,0,-2,4,2,-29,-14,-3,-1
1615922425412763,-2,-7,-16,-2,34,8,1,0
1615922425416776,1,3,5,-7,-21,1,1,-1
1615922425416776,-3,-7,-9,-4,15,-4,0,-4
1615922425425754,1,3,5,5,17,6,1,0
1615922425425754,-2,-6,-17,-8,-10,-2,-2,-1
1615922425439928,0,4,33,9,4,1,0,1
1615922425439928,-1,-1,-6,-2,10,5,-2,-1
1615922425448793,-1,-3,-19,0,18,0,0,0
1615922425448793,0,5,33,14,-6,30,1,1
1615922425463752,2,-5,-28,-10,-5,-9,-4,-1
1615922425463752,0,1,-8,-4,-36,-4,0,-1
1615922425464750,-3,2,14,-2,56,13,-2,-2
1615922425464750,0,2,-10,-4,-56,-5,0,0
1615922425476718,-1,2,6,7,4,-6,-3,-1
1615922425476718,-1,-1,-3,-3,5,-3,-2,1
1615922425486702,0,-2,-2,-3,-10,1,0,-1
1615922425486702,0,-2,0,3,73,4,1,-1
1615922425499657,1,-3,-6,-5,-25,-9,0,-1
1615922425499657,0,0,0,-7,-1,-14,1,1
1615922425508667,0,6,-1,4,-39,10,-1,1
1615922425508667,-4,-4,16,10,73,-5,-3,-1
1615922425522596,-4,-5,-4,0,-29,0,-3,-1
1615922425522596,1,-4,-4,-1,23,7,2,-1
1615922425529577,-1,1,-6,-4,-15,-16,-1,-2
1615922425529577,1,0,-18,-19,-39,-6,-2,0
1615922425537559,1,3,4,6,57,-2,-2,1
1615922425537559,-1,1,13,4,-11,7,0,1
1615922425546532,-1,-1,-1,0,17,-12,-2,0
1615922425546532,-2,-5,-12,-2,-9,-1,1,-4
1615922425559498,-2,-1,-1,0,9,3,0,-1
1615922425559498,-1,-1,3,1,-7,-27,-3,-2
1615922425570087,0,1,9,-4,-1,6,-1,1
1615922425570087,0,3,11,15,10,5,1,2
1615922425583056,-3,-4,-16,-8,-15,-6,-1,-3
1615922425583056,-1,3,8,7,44,10,-2,-1
1615922425590133,-4,-3,-9,-4,-18,-3,-2,-3
1615922425590133,-1,-2,4,-3,-8,-7,-2,-1
1615922425597015,1,2,8,-2,-67,1,1,0
1615922425597015,-1,-4,-28,-2,19,3,-1,0
1615922425605991,-1,-3,16,3,-33,-7,-1,-3
1615922425605991,-1,0,2,-6,49,20,-1,0
1615922425619978,-2,-2,3,8,41,10,2,0
1615922425619978,-2,-4,-11,-4,-4,1,0,-2
1615922425635959,0,1,-6,-5,-19,0,1,-1
1615922425635959,-4,-4,4,-5,-7,5,-1,-2
1615922425642911,2,5,13,6,34,-2,-2,2
1615922425642911,2,1,0,-1,-12,4,-1,0
1615922425649905,0,-2,1,2,55,2,0,-1
1615922425649905,-1,-2,-25,-8,-25,-8,0,-2
1615922425656954,-2,-1,13,-11,-40,-5,-2,-2
1615922425656954,0,1,13,1,-48,-13,-3,0
1615922425666574,-1,2,19,11,47,7,-2,0
1615922425666574,-4,-5,-28,-6,9,-2,-3,-1
1615922425688765,-2,-3,-4,-5,-15,4,0,0
1615922425688765,-2,-5,-17,-4,-10,1,-1,0
1615922425690650,1,2,8,-2,4,2,0,-1
1615922425690650,2,0,4,4,-13,-9,1,0
1615922425710597,-1,-2,-11,-1,17,5,0,-2
1615922425710597,-5,-4,-5,0,-10,-4,1,0
1615922425712592,2,6,-4,-1,0,-3,-2,1
1615922425712592,1,2,4,6,-37,-3,1,2
1615922425725732,-1,-3,-16,-10,9,4,-2,-1
1615922425725732,0,-4,-2,4,-5,-4,-1,-2
1615922425727620,0,-3,0,-2,-10,1,1,-2
1615922425727620,0,1,12,1,6,-7,0,0
1615922425739588,-3,1,-3,5,-2,-4,-2,0
1615922425739588,0,0,4,-6,56,2,-2,-2
1615922425748563,-2,-2,-2,0,-27,-3,-1,1
1615922425748563,-3,-4,-19,0,17,2,-3,-2
1615922425762528,0,1,7,9,7,-3,-1,0
1615922425762528,2,1,2,-3,13,11,0,2
1615922425769510,0,-5,-8,-5,-35,-9,-1,-1
1615922425769510,1,-7,-13,-6,-35,-17,-4,-2
1615922425786488,0,2,-5,-2,47,6,0,0
1615922425786488,-1,4,12,6,-12,10,0,0
1615922425787461,-1,-3,1,-3,-3,-22,-2,-1
1615922425787461,-4,-1,-10,1,-18,-9,-2,-1
1615922425799427,-1,-6,-3,-6,-48,-9,-2,-4
1615922425799427,-1,0,1,-3,5,-2,-3,-2
1615922425808404,-4,-4,-5,-3,25,8,0,-2
1615922425808404,1,3,25,7,18,11,1,0
1615922425823364,1,1,3,-4,-17,-4,1,2
1615922425823364,-2,-5,-10,1,0,2,-1,-5
1615922425829348,-1,2,6,-1,-20,-2,-2,1
1615922425829348,-2,-3,-15,1,34,0,-3,-2
1615922425846302,-3,-3,6,-8,-25,-1,-2,-4
1615922425846302,1,-4,3,2,52,13,2,1
1615922425847300,-1,-2,-7,-3,-10,-5,-1,0
1615922425847300,-1,2,11,6,39,6,1,-3
1615922425859445,-1,1,-11,-2,-22,-17,0,1
1615922425859445,-1,-4,1,-3,-36,0,0,-2
1615922425868396,3,10,28,5,-10,7,0,1
1615922425868396,-3,-6,-15,-4,22,1,-4,-1
1615922425882393,-1,-1,-5,2,0,-1,0,0
1615922425882393,-2,-1,-6,-3,-18,-2,0,0
1615922425891328,-1,1,14,-3,40,-2,1,-1
1615922425891328,3,2,25,11,-19,-4,0,-1
1615922425905481,1,1,-2,-5,5,10,1,0
1615922425905481,0,1,0,3,-6,-39,-7,-2
1615922425912437,-3,-5,-9,-1,-43,4,-2,-1
1615922425912437,-1,4,0,2,-22,5,0,0
1615922425919418,-2,-4,-8,-12,18,-3,-2,-1
1615922425919418,-2,4,38,10,2,-12,-2,-2
1615922425928395,-2,-7,-21,-2,27,7,0,-1
1615922425928395,1,1,0,-2,-31,-9,-1,0
1615922425942356,0,-3,-4,3,24,0,-4,-2
1615922425942356,-2,-4,-27,-14,-19,6,0,-1
1615922425957343,2,5,38,15,1,-5,0,1
1615922425957343,-3,-4,-5,-16,-11,5,-1,-1
1615922425966293,-2,-4,1,5,34,17,0,-2
1615922425966293,1,0,-7,0,10,11,0,-1
1615922425967290,-1,-3,-10,-5,-23,0,0,-2
1615922425967290,1,-1,-9,-6,20,5,3,0
1615922425979258,0,2,15,3,-62,4,0,0
1615922425979258,-4,-8,-11,-3,32,7,-1,-3
1615922425988374,1,0,3,2,-4,-1,-1,0
1615922425988374,0,-2,-6,2,-20,-1,-4,-2
1615922426002342,-2,-2,-19,-7,67,0,-2,0
1615922426002342,0,2,15,10,-16,-3,1,0
1615922426011315,-2,-2,-27,-16,-62,-19,-4,-3
1615922426011315,0,1,-5,-4,31,0,2,1
1615922426026299,-1,0,-4,7,-44,-37,-2,-1
1615922426026299,-2,1,3,-5,-11,-6,0,-1
1615922426032259,-4,-3,-13,-1,25,4,-3,1
1615922426032259,-2,-4,-4,-4,5,-6,-2,-1
1615922426040251,-1,-4,-11,-6,-3,15,1,-1
1615922426040251,3,10,15,9,-12,-1,-3,-1
1615922426049215,1,-4,-22,-6,14,-4,0,-1
1615922426049215,-5,0,25,8,4,1,-4,-1
1615922426062179,-2,-8,-9,-7,62,3,1,-2
1615922426062179,2,1,-1,0,-10,-8,0,0
1615922426071154,-2,1,-2,1,26,11,-1,-3
1615922426071154,-2,2,-8,4,35,-4,-4,-2
1615922426093096,1,5,25,6,-39,-5,0,1
1615922426093096,-4,-7,-25,-7,19,2,-2,-1
1615922426095091,3,6,20,-1,-10,4,2,1
1615922426095091,1,1,-4,1,-25,-7,2,-1
1615922426100104,-5,-4,-3,-1,-39,-10,-5,-4
1615922426100104,0,-1,-14,-11,-79,-6,1,1
1615922426109079,-3,-5,14,7,1,12,0,-3
1615922426109079,0,3,-5,-1,45,8,1,-1
1615922426122019,-1,2,24,6,-9,1,0,-1
1615922426122019,-4,2,1,-2,12,-1,0,1
1615922426130995,-1,-5,-17,-6,2,-12,-3,0
1615922426130995,1,1,9,2,17,4,3,0
1615922426145954,0,-4,-20,-5,-1,10,-2,-3
1615922426145954,4,-4,4,2,6,2,4,2
1615922426147974,-2,1,-5,3,-11,-3,0,-1
1615922426147974,0,0,13,1,-3,4,0,-1
1615922426160026,-1,-3,3,0,16,-2,2,1
1615922426160026,-1,-5,-3,-7,-12,2,-3,0
1615922426168577,1,2,-9,-5,-38,5,0,0
1615922426168577,-1,-4,-4,-9,-30,-9,0,-1
1615922426182543,1,1,-9,11,9,-1,1,1
1615922426182543,2,4,3,-5,49,2,0,2
1615922426191516,-1,0,10,10,-15,6,1,0
1615922426191516,-2,2,-4,-8,-32,-32,-4,0
1615922426206585,-1,1,-9,-12,-33,4,0,-2
1615922426206585,-2,1,4,11,27,-4,-3,-3
1615922426207473,-2,0,10,1,-10,-5,0,2
1615922426207473,-1,-4,2,-6,20,8,0,1
1615922426219465,-2,-3,-18,-10,-30,-16,-1,-3
1615922426219465,-2,-1,9,3,4,4,-2,-1
1615922426228417,-3,-5,-17,-9,41,4,-1,-3
1615922426228417,-2,-1,11,1,-73,-6,-1,-1
1615922426242621,-1,-4,0,2,38,-2,1,-1
1615922426242621,-1,-1,-3,-1,-3,6,1,-2
1615922426251489,0,-4,-8,-1,16,3,-3,-2
1615922426251489,-1,-4,-16,-1,-18,-17,-1,0
1615922426266449,-1,-1,4,-3,70,6,-2,0
1615922426266449,-1,-1,0,-1,-77,-10,-1,-3
1615922426269440,0,-1,-5,-2,40,12,2,2
1615922426269440,-1,-2,-1,7,28,17,0,-2
1615922426279418,1,3,2,-3,-36,-14,-5,1
1615922426279418,1,-2,0,-3,-8,-1,1,0
1615922426296672,-3,-4,-16,-10,9,-7,-4,-4
1615922426296672,-1,0,-2,-9,9,4,1,-1
1615922426302684,0,0,-5,6,10,1,-1,1
1615922426302684,-4,-1,11,-1,10,2,-1,0
1615922426311633,-1,-4,-6,-3,-16,8,1,-2
1615922426311633,1,5,8,5,5,-5,-1,0
1615922426325768,0,0,2,-2,-67,-1,1,1
1615922426325768,-1,-2,-9,-5,58,4,-2,-2
1615922426327739,-2,1,7,5,36,6,2,-1
1615922426327739,1,-5,-20,-6,-4,-3,-3,1
1615922426339734,1,5,32,4,-21,-1,-2,-1
1615922426339734,0,-6,-6,1,-1,-9,0,0
1615922426348683,-1,0,13,-3,-8,-6,-1,-1
1615922426348683,1,-2,-11,1,36,7,-3,2
1615922426362784,-5,-4,-9,1,7,-1,0,-2
1615922426362784,-2,-4,-13,-12,5,12,-2,-2
1615922426371383,0,6,39,12,-33,-4,2,2
1615922426371383,0,-1,-18,-1,-19,0,0,-2
1615922426386368,0,-3,-3,-2,26,-1,-1,2
1615922426386368,-2,-2,-4,6,-35,1,-3,-1
1615922426387340,-1,-3,-6,3,45,-7,-2,-1
1615922426387340,0,1,2,-6,-17,5,0,-1
1615922426399331,-2,-4,0,2,-24,-3,-1,-1
1615922426399331,0,1,4,0,-1,-8,-1,-1
1615922426408397,-2,-2,-5,-8,-26,-17,-6,-1
1615922426408397,0,-1,10,7,5,-2,-1,-2
1615922426422362,0,-1,-24,-4,17,1,1,-1
1615922426422362,2,4,28,8,-23,7,0,0
1615922426431338,2,1,-10,-3,-13,-35,-3,1
1615922426431338,-2,-5,-6,-2,40,19,0,-4
1615922426446573,1,0,-3,-1,9,3,0,0
1615922426446573,-3,-4,-25,-23,-32,-12,-2,-1
1615922426447570,0,0,3,13,-12,13,1,-2
1615922426447570,1,2,16,5,21,3,-1,0
1615922426459541,0,-2,10,-2,-9,-3,-1,-2
1615922426459541,-2,-6,-9,0,54,-1,-1,0
1615922426468543,1,5,-6,-4,-2,3,1,-1
1615922426468543,-4,-5,-12,-4,-5,-3,-3,-2
1615922426482533,0,1,11,0,23,1,-1,-2
1615922426482533,0,-3,-4,3,-5,4,1,-1
1615922426491506,-1,-2,-5,-7,-53,-30,-4,0
1615922426491506,-2,-3,-2,-3,-23,-2,0,-4
1615922426505444,-1,0,1,-2,-14,8,-3,-2
1615922426505444,-1,1,-8,0,-15,-5,-2,-1
1615922426512449,-1,-2,-11,-5,4,11,1,0
1615922426512449,-1,0,2,-1,-22,-9,-1,1
1615922426519407,-2,-3,-5,-3,-6,-1,-2,-1
1615922426519407,2,5,2,4,-5,-10,-1,2
1615922426528382,-2,-5,-10,-3,21,7,-3,-3
1615922426528382,-1,5,28,-7,-6,2,1,-1
1615922426542444,-3,2,-21,10,-21,-1,-1,-2
1615922426542444,-3,-1,5,-4,12,-7,-3,-4
1615922426551321,1,2,9,5,9,1,0,1
1615922426551321,1,-1,-3,-2,-30,-6,0,0
1615922426565283,-1,-2,-3,-3,-1,-6,0,1
1615922426565283,-1,1,10,0,8,3,-3,-1
1615922426572292,-2,-2,-8,-2,30,16,-2,-1
1615922426572292,-3,-5,-25,-8,-20,-3,-2,-4
1615922426579270,-1,-2,25,9,8,-6,-1,0
1615922426579270,1,1,1,5,7,7,2,2
1615922426588321,-2,-6,9,-6,-20,3,-2,-1
1615922426588321,1,0,8,2,10,-9,-3,-1
1615922426602205,0,-5,6,-2,3,8,1,0
1615922426602205,0,2,-5,-1,8,-7,-1,-2
1615922426617171,-2,-2,-1,-4,-2,4,1,-1
1615922426617171,0,4,4,8,15,-13,0,-2
1615922426625149,0,-3,-10,-8,-26,-1,-2,-2
1615922426625149,0,-2,7,1,-15,4,0,1
1615922426632141,0,1,-2,-7,-33,3,-1,-1
1615922426632141,-3,2,23,4,10,15,-1,-1
1615922426640112,-1,1,-5,8,96,5,0,1
1615922426640112,-3,-4,-11,-6,10,3,-2,-3
1615922426649066,2,5,19,5,-3,1,4,2
1615922426649066,-2,-6,-23,-10,-57,-2,-2,-1
1615922426662079,0,-2,-4,-3,29,23,0,-2
1615922426662079,0,7,17,4,-3,-8,0,-2
1615922426671054,-1,-4,-19,-4,31,7,-2,-2
1615922426671054,-3,-3,-6,4,-39,-3,-1,-1
1615922426685041,-2,2,-4,-5,-35,5,1,-2
1615922426685041,1,-1,-4,3,8,-6,0,1
1615922426692002,-2,-1,11,-8,-53,-11,-2,-3
1615922426692002,-2,-1,-6,4,15,4,0,3
1615922426708955,-2,-1,-3,0,-7,-14,-4,-3
1615922426708955,-3,-6,3,4,-31,6,-1,1
1615922426709977,-1,-1,-10,1,47,5,-2,-2
1615922426709977,2,-3,-12,-5,8,-2,0,0
1615922426721919,0,0,12,2,-12,0,1,1
1615922426721919,-1,1,9,-5,-22,3,-1,-2
1615922426731892,-1,-3,-9,3,6,-24,-2,-1
1615922426731892,-1,-3,-7,-5,8,6,-3,-2
1615922426745855,1,1,-10,-7,-11,-5,2,0
1615922426745855,-1,-4,6,2,5,7,0,-1
1615922426751842,-2,-1,-7,-3,20,3,-2,1
1615922426751842,-1,1,-3,-4,-53,-6,-1,-2
1615922426768817,2,1,6,0,-34,-5,0,0
1615922426768817,-1,-3,0,-3,-57,-11,-2,-1
1615922426769815,0,2,3,5,-31,-3,0,0
1615922426769815,-2,-4,-1,-9,39,4,1,-2
1615922426782767,-1,3,17,8,10,-3,-1,-1
1615922426782767,-1,-2,-17,-3,13,2,-2,-1
1615922426791737,0,2,1,-3,-39,-30,-1,0
1615922426791737,2,3,11,5,-25,4,2,1
1615922426805705,-3,-6,-16,-7,38,-2,-1,-1
1615922426805705,2,1,-1,-4,-5,-4,0,2
1615922426812681,-2,-4,9,4,19,4,-1,-2
1615922426812681,-2,-3,-8,0,15,2,0,0
1615922426828638,-2,-2,6,-2,-1,-7,-1,-1
1615922426828638,-4,-6,-27,-20,-13,-1,-2,-2
1615922426830639,1,7,44,22,22,7,-2,-2
1615922426830639,-1,-4,-5,-1,-3,-8,0,-1
1615922426842665,-1,-2,7,0,-2,5,1,1
1615922426842665,-1,-1,-13,1,17,13,1,1
1615922426851616,-3,0,-14,-7,-28,-7,-4,-3
1615922426851616,0,4,12,4,14,-5,-1,-2
1615922426865676,0,-3,-8,-6,70,16,-3,-2
1615922426865676,-1,4,15,6,-12,4,1,-1
1615922426872560,0,-7,-24,-5,-1,5,-1,1
1615922426872560,0,-1,9,1,2,0,-1,0
1615922426888547,-2,-4,-10,-11,-23,-7,0,0
1615922426888547,-3,-2,11,18,73,3,-1,-2
1615922426890536,-1,-1,2,-14,-82,-10,0,-2
1615922426890536,3,1,-12,-1,36,5,1,1
1615922426902484,0,1,0,0,-20,-5,-1,-2
1615922426902484,-1,-4,3,-1,62,23,0,0
1615922426911592,-1,0,1,6,0,-11,-1,0
1615922426911592,-1,-2,-13,-11,-22,1,-1,0
1615922426925553,-2,2,22,2,-55,-7,-1,0
1615922426925553,-1,0,-2,5,-2,-5,-2,-1
1615922426932595,-3,-9,-25,-7,19,13,0,-2
1615922426932595,-2,2,7,3,12,-1,-2,-3
1615922426948495,-1,-1,5,-2,29,-1,-1,-1
1615922426948495,0,1,9,2,-24,-14,-1,-1
1615922426950490,3,2,4,-1,35,14,1,0
1615922426950490,-4,-6,-3,-2,-74,-17,-6,-3
1615922426962455,-3,-5,-11,-8,-25,-3,-2,0
1615922426962455,-2,-6,-8,-5,47,7,1,-1
1615922426972445,0,0,5,12,29,-11,-3,0
1615922426972445,-1,1,15,1,13,4,1,-2
1615922426985426,2,1,-14,-6,16,-4,0,2
1615922426985426,1,0,-2,2,-33,6,0,-2
1615922426992375,-1,0,-3,-3,18,7,0,-2
1615922426992375,-2,-5,-15,-2,31,0,-1,-2
1615922427008465,3,8,11,6,-17,-2,0,0
1615922427008465,0,-2,-9,-3,50,-9,-2,-1
1615922427010463,-1,-3,2,4,-31,0,0,-2
1615922427010463,-1,0,6,-3,10,-5,-4,-2
1615922427022430,-1,-4,-24,-1,10,-1,-1,-1
1615922427022430,2,8,17,9,-2,13,1,1
1615922427031407,-2,-2,0,-5,-11,0,-1,-1
1615922427031407,-1,-4,-6,1,9,-8,-1,1
1615922427045635,-1,-2,-9,3,-15,1,0,-2
1615922427045635,0,-2,-9,-6,-6,-17,-1,-2
1615922427052617,-3,-3,-6,-4,2,3,0,-2
1615922427052617,4,7,2,10,-3,14,3,1
1615922427068575,1,2,1,-7,-18,-7,-1,-2
1615922427068575,-3,-4,-13,-3,-18,-4,-1,0
1615922427070593,0,-1,-4,-7,-38,1,1,0
1615922427070593,-1,-2,10,-6,-26,-12,-3,1
1615922427082572,-1,-1,0,2,42,-5,-3,-4
1615922427082572,-1,-1,-6,-9,-41,-1,-4,-1
1615922427097526,-3,-2,-4,-4,-53,-27,-2,-3
1615922427097526,0,-2,14,3,29,13,-2,1
1615922427105500,-2,-3,-6,1,18,4,-2,-1
1615922427105500,-1,-5,12,-9,-22,-10,-2,-3
1615922427112457,4,-1,-16,-10,8,6,1,0
1615922427112457,-1,-1,28,5,-3,4,-3,-1
1615922427128414,0,0,-16,-3,-8,-1,0,0
1615922427128414,2,6,2,11,20,-3,-1,-1
1615922427130408,-2,-4,6,-2,-9,1,-1,2
1615922427130408,-1,-1,-22,-4,-6,-2,0,-2
1615922427142534,1,3,9,0,-3,12,2,1
1615922427142534,2,-3,-5,5,-27,-19,-5,-1
1615922427151483,0,0,-2,1,82,13,0,0
1615922427151483,-2,-6,-4,-3,-50,-13,-4,-3
1615922427173523,-3,-5,-10,-1,-26,-1,-2,-3
1615922427173523,-1,2,19,-7,-3,-4,-1,-2
1615922427175419,2,5,28,9,16,7,2,1
1615922427175419,-2,-4,-17,-3,4,-10,-3,-1
1615922427188410,-1,1,4,-1,-9,-2,-2,-1
1615922427188410,-2,-5,-5,-2,4,10,-1,-1
1615922427190379,-2,-4,0,-4,-45,-2,-2,-2
1615922427190379,-1,4,-14,0,26,8,3,1
1615922427202447,-1,-1,15,0,-41,-28,-3,0
1615922427202447,0,1,0,7,26,6,2,2
1615922427211323,0,0,-14,-5,35,3,-4,-2
1615922427211323,-1,-2,-29,-12,-11,4,1,0
1615922427225312,0,1,30,9,45,5,-1,2
1615922427225312,-1,-1,-8,-1,-49,-7,-2,-4
1615922427232293,-3,-2,0,1,-8,-6,-2,-1
1615922427232293,0,0,3,-3,14,9,-1,-1
1615922427248361,1,-1,7,8,34,2,0,1
1615922427248361,-1,-1,12,-2,-8,9,1,1
1615922427250248,0,-2,-9,-4,16,-20,-1,0
1615922427250248,-1,0,9,-1,4,-5,-1,-2
1615922427262240,-2,-5,-12,-4,-2,-2,0,-2
1615922427262240,-1,-9,-36,-15,33,6,2,0
1615922427271192,3,9,26,16,1,4,2,0
1615922427271192,1,2,10,8,26,-6,1,0
1615922427285174,-1,-5,-16,-10,-17,4,-2,-1
1615922427285174,0,1,-9,-2,3,-6,-2,-1
1615922427294132,-3,-5,-3,0,23,5,-1,-4
1615922427294132,-2,-2,-3,1,45,16,0,-2
1615922427309151,-4,-5,-4,-9,-15,-18,-5,-5
1615922427309151,-5,-3,-2,-2,61,-2,-1,0
1615922427310088,-1,-1,5,-2,3,4,-1,0
1615922427310088,0,-7,-20,-2,-11,0,1,1
1615922427322056,1,7,22,11,13,4,1,-1
1615922427322056,-1,-2,-7,-7,22,-4,-1,0
1615922427331032,-1,1,-5,-1,-38,-9,-5,-1
1615922427331032,-1,-1,17,5,20,-7,1,1
1615922427345275,-2,-5,-20,-13,-29,8,-3,-2
1615922427345275,0,2,10,6,-12,7,-1,1
1615922427354253,0,-3,-21,-1,-31,-2,1,1
1615922427354253,-1,3,20,0,68,3,-4,-4
1615922427368213,-1,-4,-4,-1,5,-1,0,0
1615922427368213,-2,0,14,5,-30,0,-1,-2
1615922427376193,-4,-9,-21,-12,10,1,1,0
1615922427376193,-1,1,17,2,-38,-8,-2,-1
1615922427382201,-2,-3,-9,4,4,-2,-1,0
1615922427382201,-1,2,-4,2,40,2,-1,-2
1615922427391153,0,-2,-9,0,24,17,0,-2
1615922427391153,-1,-1,-12,-8,-22,-3,-1,0
1615922427405294,0,-1,5,10,49,18,2,-2
1615922427405294,0,-4,-2,-4,-49,-14,-1,1
1615922427414224,-2,-1,-7,-1,29,-1,-1,-1
1615922427414224,-1,-3,-12,0,-18,11,2,0
1615922427428187,0,2,1,-10,-43,-5,-1,1
1615922427428187,-1,2,-3,0,-8,2,-1,0
1615922427435172,-3,1,35,10,14,-3,0,-2
1615922427435172,0,-7,-15,-3,-22,-7,0,-1
1615922427442153,2,4,0,-3,-31,-15,-2,-1
1615922427442153,-2,-2,7,-2,-6,-1,0,2
1615922427451125,0,0,-31,-12,-11,0,-1,-1
1615922427451125,-1,2,47,13,42,9,1,0
1615922427465088,0,-1,-7,-3,-9,19,-1,-2
1615922427465088,-1,0,8,2,-22,-3,0,-3
1615922427480075,1,0,-14,-9,7,2,-1,-2
1615922427480075,0,2,5,4,14,-14,0,-2
1615922427488026,-2,-3,-8,-6,14,9,0,-2
1615922427488026,1,2,6,1,-8,-3,-1,0
1615922427495007,-1,-4,-17,-7,-31,-6,-3,-2
1615922427495007,0,0,9,8,-3,-5,-1,-1
1615922427502100,0,-1,10,2,-33,1,-3,-1
1615922427502100,1,-5,-17,-1,26,-1,1,-1
1615922427511104,1,4,15,5,12,4,-1,0
1615922427511104,0,0,-9,-9,-18,5,1,0
1615922427525093,-1,-4,-7,8,-40,-30,-4,1
1615922427525093,0,4,21,-6,-21,-4,-1,-3
1615922427534043,-1,4,6,1,12,-1,-1,-2
1615922427534043,0,-7,-15,-2,-22,-8,-5,-2
1615922427548109,-1,-2,-6,-10,-30,4,1,-1
1615922427548109,-1,-2,0,4,24,0,-1,-1
1615922427554990,-4,-3,3,-1,-38,-16,-3,-3
1615922427554990,-2,-1,9,-4,7,7,0,0
1615922427561968,0,3,-12,-1,11,-4,0,0
1615922427561968,0,1,19,1,-15,-5,-2,-1
1615922427578923,-1,-4,15,8,4,3,0,-1
1615922427578923,-3,-7,-26,-10,-31,-9,-1,0
1615922427584923,-2,7,34,8,48,27,1,0
1615922427584923,-2,-5,-23,-9,-51,-17,-2,-1
1615922427593883,-1,1,-15,-4,-54,-14,1,2
1615922427593883,0,6,25,9,50,7,2,-3
1615922427607996,-2,-4,-16,-5,33,4,-2,0
1615922427607996,-3,-2,6,2,-26,1,0,-2
1615922427615004,2,0,3,-1,-6,1,2,1
1615922427615004,-1,0,-8,-4,-34,1,0,-1
1615922427631052,-3,-2,-14,-1,-5,-16,-3,-4
1615922427631052,-1,1,-11,5,21,9,3,1
1615922427632931,-1,-2,-3,-1,26,1,-1,-1
1615922427632931,-2,4,-1,-2,4,15,1,-1
1615922427644923,0,-2,6,5,14,-9,-3,-2
1615922427644923,-2,-4,-17,-10,-41,-11,-3,-2
1615922427653875,2,-2,13,10,69,13,1,3
1615922427653875,1,6,-4,-3,1,-8,-1,1
1615922427667861,-2,-5,-15,-9,-48,4,-1,-2
1615922427667861,-1,1,-2,-1,11,-4,-1,0
1615922427674819,-4,-4,4,3,5,4,-4,-2
1615922427674819,-1,-3,-12,0,30,-5,0,1
1615922427690776,-1,0,-3,-12,-44,-6,1,0
1615922427690776,-3,-7,-12,-2,26,5,1,-1
1615922427692772,1,1,14,3,16,16,-1,-2
1615922427692772,-1,-3,-20,-3,-47,-9,-4,0
1615922427704842,-1,0,12,4,-11,-16,-2,0
1615922427704842,-2,-2,-14,-2,17,-1,-2,-1
1615922427713714,-3,-3,-9,-4,-26,1,0,-1
1615922427713714,-1,0,-4,-6,-23,-6,-1,-1
1615922427727678,0,-1,2,5,14,2,1,-1
1615922427727678,0,6,-3,-7,7,4,0,0
1615922427734759,0,-1,2,1,19,-1,-3,0
1615922427734759,-1,2,-8,0,16,5,0,-3
1615922427751647,-2,-4,-1,5,49,0,-1,-3
1615922427751647,-1,-2,-8,-6,-24,0,0,0
1615922427752611,-1,1,10,4,-12,-5,-2,-2
1615922427752611,-2,-6,-4,-4,-4,11,-1,-2
