timestamp,emg1,emg2,emg3,emg4,emg5,emg6,emg7,emg8
1615922469841571,1,3,34,2,-22,-4,0,1
1615922469841571,0,2,-18,-1,33,4,-2,-1
1615922469842569,-1,-1,-1,3,25,5,1,0
1615922469842569,-1,-1,6,-3,-40,7,-2,-2
1615922469864509,-2,0,-7,-6,35,2,-1,-1
1615922469864509,1,-2,4,-4,-15,-8,-1,1
1615922469865507,-1,-2,-5,-3,7,3,0,0
1615922469865507,-1,-2,1,3,2,-3,-1,-1
1615922469879470,-2,-1,3,-1,-22,-6,0,-2
1615922469879470,-3,-2,-4,4,35,10,0,-3
1615922469887448,1,2,4,-6,-8,13,3,1
1615922469887448,1,-3,-8,-6,-52,-16,-2,-2
1615922469902410,2,-1,-4,-2,32,6,0,0
1615922469902410,-2,-2,-9,-4,-27,2,-1,-1
1615922469902410,-2,-3,-3,-3,-2,-5,0,-2
1615922469902410,-1,-1,4,6,17,2,0,0
1615922469916371,-2,0,9,5,-24,-3,-3,-3
1615922469916371,1,1,-7,-1,27,5,0,1
1615922469923352,-2,-8,-23,-11,-5,-8,-3,-1
1615922469923352,3,8,42,12,-10,7,3,3
1615922469939310,-1,-2,-19,-6,-6,-7,0,0
1615922469939310,-3,-3,0,0,-8,-1,-2,-3
1615922469947288,0,-3,2,0,-25,-15,-4,-1
1615922469947288,-1,3,-2,-3,23,13,0,0
1615922469962248,-1,-1,-6,0,36,3,0,1
1615922469962248,2,0,4,-1,-69,-9,0,0
1615922469963246,0,1,1,-5,16,16,1,0
1615922469963246,-2,-2,12,9,3,-2,-1,-3
1615922469976211,-1,-1,-4,-5,-18,2,-3,-3
1615922469976211,0,0,-5,-3,-16,-13,0,0
1615922469984191,-3,-6,-10,1,-6,2,0,-1
1615922469984191,-1,-4,5,-2,12,-3,-1,1
1615922469999149,0,2,15,7,-21,3,-2,0
1615922469999149,-1,-1,-5,-4,76,8,0,0
1615922470007129,-2,-1,5,4,-17,-13,-3,-1
1615922470007129,-2,-5,-16,-6,4,5,1,2
1615922470022088,3,2,5,1,12,-12,2,-1
1615922470022088,-2,-4,-11,1,-35,-6,-2,0
1615922470023087,2,3,4,2,-33,-8,-2,-1
1615922470023087,-1,-2,-20,-10,3,-12,0,-3
1615922470036052,-2,-4,-4,-2,-16,5,-1,-3
1615922470036052,0,1,8,0,-9,2,2,0
1615922470044030,0,0,-4,0,30,-11,-2,-3
1615922470044030,-4,-3,-5,-2,17,20,-2,-5
1615922470067967,-3,-1,-6,-2,-11,-3,0,0
1615922470067967,-3,-2,9,3,34,1,-1,-3
1615922470068964,-1,-2,3,0,-31,-9,-2,-1
1615922470068964,0,3,-11,-10,-13,11,-1,-1
1615922470081930,2,4,22,21,53,12,5,3
1615922470081930,-3,0,-5,-15,-37,-13,-4,-5
1615922470082925,0,-1,-5,-3,53,18,0,0
1615922470082925,-2,-4,5,4,20,0,0,0
1615922470096888,-1,-4,-8,-5,-28,-11,-3,-4
1615922470096888,0,-1,-7,0,-31,0,-1,1
1615922470111850,0,2,19,2,-17,2,0,0
1615922470111850,0,1,-7,-3,-4,0,-1,-2
1615922470118831,-3,-3,-9,-5,-36,-9,0,0
1615922470118831,1,-2,4,3,31,5,0,-1
1615922470126809,-3,-1,-5,0,8,0,-1,-1
1615922470126809,0,-4,-7,-5,-12,6,-3,-2
1615922470150746,-1,-6,-21,-13,-37,-10,-2,-1
1615922470150746,1,2,15,8,-7,3,2,1
1615922470150746,1,-3,-14,2,-18,19,-1,1
1615922470150746,-2,2,9,2,26,-9,-3,-1
1615922470156729,-3,-7,-25,-12,-28,5,-1,-2
1615922470156729,-2,-4,-5,-7,-19,0,0,-1
1615922470163710,0,-1,20,4,27,-1,0,-3
1615922470163710,0,1,-8,7,-3,5,4,0
1615922470178670,-3,-4,-2,-3,46,5,-2,-2
1615922470178670,-3,-2,-6,-5,0,0,-1,-2
1615922470187648,0,-2,-6,-2,-28,-14,1,2
1615922470187648,-3,0,1,2,10,2,-1,-2
1615922470201609,-1,0,-1,0,11,-1,-1,-1
1615922470201609,1,3,3,6,16,-3,0,1
1615922470209587,-2,-5,-24,-12,-18,1,-1,-5
1615922470209587,1,-2,42,17,-3,-3,-3,-1
1615922470216570,4,6,12,6,2,13,3,7
1615922470216570,-4,-2,-3,-2,13,5,-4,-1
1615922470223550,-2,1,6,6,-60,-18,-4,-2
1615922470223550,-2,-2,-26,-8,-24,-9,-1,-1
1615922470239283,-2,-5,1,1,33,0,-1,-3
1615922470239283,2,0,7,3,0,-5,-1,0
1615922470247345,-2,-1,-2,-5,11,-17,-3,-2
1615922470247345,-1,1,-5,-3,-16,1,-1,-1
1615922470261196,-1,0,6,1,-10,1,0,0
1615922470261196,0,-6,-8,-4,-12,-10,-2,-1
1615922470269175,1,1,-8,3,38,4,2,1
1615922470269175,-2,-2,5,-5,-20,-7,-2,0
1615922470276156,-2,-5,-12,-3,19,-5,-1,-2
1615922470276156,0,-2,-1,1,-17,0,2,2
1615922470284238,-4,-2,5,-2,-10,-5,-2,-3
1615922470284238,-1,-2,1,1,23,0,0,1
1615922470299095,1,1,-19,-13,-16,-8,-3,-2
1615922470299095,-4,-5,0,7,-33,17,1,-1
1615922470307074,-2,1,11,-4,-28,-12,0,-1
1615922470307074,2,-3,-17,-4,35,19,4,1
1615922470321067,-1,-3,-5,-6,-33,-10,-2,-3
1615922470321067,0,1,11,-1,-10,-12,1,0
1615922470329438,1,3,0,0,56,13,3,3
1615922470329438,-4,-2,-5,-7,-61,-11,0,-5
1615922470344424,3,3,8,7,13,11,4,5
1615922470344424,-2,1,-6,-8,4,1,-1,-2
1615922470345395,-1,-3,-2,3,12,3,-2,-2
1615922470345395,2,0,21,7,1,3,-3,-2
1615922470358619,-3,-5,3,3,53,3,-2,-3
1615922470358619,-2,-3,-17,-13,-16,-3,-2,-2
1615922470366601,-2,-2,13,5,13,6,0,0
1615922470366601,1,-1,-8,-6,-24,-7,-2,0
1615922470381669,-1,4,0,-6,-33,-3,1,-1
1615922470381669,-2,-2,24,11,-3,0,-1,-4
1615922470389538,-1,1,-8,-2,1,-1,-3,-1
1615922470389538,-2,-4,-10,-7,-39,-3,1,0
1615922470404504,2,0,15,3,-34,-21,0,1
1615922470404504,-3,-7,-17,-11,39,2,-3,-3
1615922470405496,-2,-1,-12,1,-8,6,1,-1
1615922470405496,0,4,20,10,-7,-12,-2,-1
1615922470420456,-4,-5,-11,-5,-21,1,-4,-3
1615922470420456,0,0,-2,5,38,2,1,-1
1615922470427438,0,-4,10,-1,7,2,-4,-4
1615922470427438,1,-3,-19,-4,35,5,1,2
1615922470441400,-2,0,4,-1,4,2,-1,-1
1615922470441400,0,4,11,12,7,-10,-2,0
1615922470449379,1,1,-2,0,-2,-5,-2,-1
1615922470449379,-1,-3,-2,-5,-15,0,-1,0
1615922470464339,0,-2,0,2,14,1,-1,-2
1615922470464339,1,3,-9,0,23,5,-2,0
1615922470465337,-1,0,2,2,1,-12,-3,-1
1615922470465337,-3,-4,-8,-3,18,-2,-1,-2
1615922470487278,1,5,5,3,-26,-1,-1,1
1615922470487278,1,0,-6,-16,-15,7,0,-1
1615922470488275,-2,-4,-15,-2,-6,-5,-2,-3
1615922470488275,-3,-2,-4,-2,24,-1,-4,-2
1615922470501271,-3,-3,-14,-3,54,-2,0,-2
1615922470501271,-3,1,-10,-4,-20,-4,-5,-1
1615922470509276,1,4,23,9,28,12,3,3
1615922470509276,-2,-4,-23,-13,-33,-14,-2,-5
1615922470524212,-2,-5,-3,-2,51,10,0,2
1615922470524212,-1,-3,-3,3,38,-1,-2,1
1615922470525232,2,2,0,-8,-31,1,0,-1
1615922470525232,-3,-3,-2,3,28,-16,-2,-2
1615922470539196,-1,3,4,3,-19,-5,-3,0
1615922470539196,2,1,5,-4,-32,-10,1,0
1615922470547148,-2,-5,-9,-4,14,10,0,-3
1615922470547148,1,1,10,5,8,-2,0,-1
1615922470561111,-1,-4,-3,-3,-22,-1,1,-2
1615922470561111,-2,2,14,2,-29,-2,0,-1
1615922470570087,2,-2,-23,0,-13,0,0,1
1615922470570087,-1,2,30,6,12,11,0,-2
1615922470593030,-2,-3,-24,-14,-21,3,-1,-1
1615922470593030,0,2,13,9,-4,4,2,0
1615922470594026,1,2,-1,-1,-7,-2,0,1
1615922470594026,2,-1,-3,2,19,13,4,4
1615922470599028,1,1,3,-2,25,-2,0,-1
1615922470599028,-3,-2,9,3,-10,-2,1,-2
1615922470606992,-1,3,3,-9,-35,-9,0,0
1615922470606992,-3,-1,-1,3,31,11,-1,0
1615922470620951,-2,-1,-1,-2,-12,0,-2,-1
1615922470620951,1,-1,-8,-1,16,-3,-1,1
1615922470629927,0,-3,-4,4,22,-2,-3,-2
1615922470629927,-1,1,-22,-9,-71,-6,-1,-1
1615922470644891,0,0,17,7,85,0,-2,-1
1615922470644891,1,4,1,-1,7,1,-1,-1
1615922470645890,-3,-4,-17,-18,5,-3,-2,-2
1615922470645890,0,0,14,10,-11,0,-1,-1
1615922470660889,-2,0,-4,-2,-15,7,-3,-3
1615922470660889,-1,-4,-15,-9,-28,1,1,0
1615922470666958,-2,1,12,3,11,-22,-3,-1
1615922470666958,2,-2,-12,-4,3,3,-2,0
1615922470681837,-2,2,7,1,25,15,1,-2
1615922470681837,-2,-4,-8,1,-3,-1,-4,-4
1615922470696794,-2,-3,3,-2,-28,18,4,1
1615922470696794,-3,-4,1,-4,30,-11,-5,-2
1615922470704772,-2,0,11,1,-19,-4,-3,-1
1615922470704772,-2,-3,-19,-6,12,2,1,1
1615922470705769,-3,-3,20,1,-10,3,-1,-3
1615922470705769,1,2,0,2,1,-1,-1,0
1615922470718735,-4,-5,-16,-4,-18,-6,0,0
1615922470718735,0,0,-1,-2,-20,0,0,0
1615922470726713,-4,-5,21,8,-7,0,0,-3
1615922470726713,-3,-5,-7,-2,17,-1,-1,-2
1615922470741673,-1,2,4,1,-24,-5,2,2
1615922470741673,-2,-2,2,-3,-24,-3,-1,0
1615922470749753,2,2,-12,-1,-3,1,-2,1
1615922470749753,0,1,-3,-5,2,1,1,2
1615922470764736,-1,-3,-5,0,-18,-6,-1,-3
1615922470764736,0,-1,4,5,-7,-9,2,1
1615922470765733,0,3,9,4,73,-3,1,-2
1615922470765733,-2,-1,5,-6,-58,-8,-2,-2
1615922470778698,2,2,-3,-8,-42,-4,-2,-1
1615922470778698,-2,-2,-8,0,-19,8,0,-2
1615922470786677,-1,-3,1,1,15,-24,-1,-1
1615922470786677,-2,-5,-17,-3,36,-4,0,-3
1615922470801637,0,4,25,9,-15,7,-1,-1
1615922470801637,-2,-1,-1,-3,-51,5,-3,-1
1615922470809724,-2,-4,-15,-7,27,-1,-4,0
1615922470809724,-2,1,11,2,-28,-8,-1,-1
1615922470824576,-2,-4,-17,-4,10,-3,1,1
1615922470824576,-1,-1,-5,-3,9,-8,-2,-1
1615922470825573,0,-1,10,14,-35,5,-2,-1
1615922470825573,2,0,13,-2,31,1,-2,1
1615922470838573,1,-1,-6,-2,-51,-4,-2,-2
1615922470838573,1,3,10,0,43,0,-1,0
1615922470847540,-2,-4,-14,-6,-12,2,1,-2
1615922470847540,-1,3,0,-3,1,10,1,0
1615922470870478,-1,-6,-10,-1,17,-6,-2,-1
1615922470870478,-2,-1,7,5,12,3,-1,-2
1615922470871474,-1,-2,-15,-4,21,-4,0,0
1615922470871474,2,2,9,8,-32,-3,-2,-1
1615922470884416,-3,-1,2,-4,-6,-2,-1,-2
1615922470884416,-3,0,-4,-3,2,0,-3,-2
1615922470885413,0,-3,-11,-8,15,9,0,0
1615922470885413,1,1,-8,0,5,-4,0,2
1615922470899486,0,0,10,7,-2,1,-1,1
1615922470899486,0,-4,-9,-10,-3,-9,-1,-1
1615922470907354,1,5,11,4,-11,3,-1,-1
1615922470907354,-4,-2,-6,-11,-2,-18,0,-1
1615922470921316,1,0,11,5,35,4,2,-2
1615922470921316,0,-3,-10,0,12,-22,-5,0
1615922470929295,-4,-1,3,-5,15,0,-2,-4
1615922470929295,-1,-1,-6,-4,-5,7,2,1
1615922470944275,-2,-1,-4,-1,1,-4,-3,-2
1615922470944275,1,1,2,1,-7,6,3,-1
1615922470945253,-2,-4,-4,-9,6,6,0,-1
1615922470945253,2,-1,1,5,-8,-5,-3,-1
1615922470958594,-1,-5,-27,-8,9,-2,-1,1
1615922470958594,1,-1,15,2,8,10,2,0
1615922470974441,0,1,-9,3,-27,-6,-1,0
1615922470974441,-1,-2,1,-1,14,7,-3,-1
1615922470981421,0,-1,-8,-5,-12,-1,2,-2
1615922470981421,-2,-4,3,0,38,-5,-2,0
1615922470989401,2,4,9,-1,-37,9,0,1
1615922470989401,-6,-5,-18,-1,-5,1,-3,-4
1615922471004365,2,1,19,5,9,1,-1,1
1615922471004365,-3,4,-19,-1,-40,5,0,-3
1615922471005357,1,3,25,2,15,-6,-5,1
1615922471005357,-4,-4,-5,-4,-10,9,1,-4
1615922471019346,-3,-3,-11,-5,-25,0,-2,-2
1615922471019346,0,1,5,0,5,6,2,0
1615922471027324,-3,-3,-17,-2,-20,-6,0,-2
1615922471027324,2,1,-4,-4,12,-4,0,1
1615922471041308,-1,1,11,7,2,-13,-4,-2
1615922471041308,1,-2,5,-3,-27,13,-2,1
1615922471049321,1,-1,-1,7,-28,-5,-3,0
1615922471049321,-1,-1,-1,-2,64,11,1,-1
1615922471072262,1,2,14,3,-29,2,0,2
1615922471072262,-2,-3,-1,1,32,1,-1,-3
1615922471073283,0,-3,-6,-2,-8,-6,-1,2
1615922471073283,2,4,12,6,-9,-5,-1,1
1615922471079263,2,2,-5,-2,11,-6,-1,0
1615922471079263,0,-1,-1,-3,-5,-2,1,0
1615922471087222,0,0,2,1,7,-5,0,0
1615922471087222,-3,-3,-7,-5,-9,-3,-2,1
1615922471101184,-1,-2,8,-4,1,-3,0,-1
1615922471101184,0,1,0,9,30,2,-1,1
1615922471109299,-6,-7,-20,-14,-2,-14,-3,-6
1615922471109299,3,3,9,10,38,8,2,0
1615922471124194,-1,1,-4,0,-19,-4,-5,-5
1615922471124194,-3,-6,-16,-9,-18,-8,-1,-2
1615922471132173,-5,-6,8,2,6,17,0,-4
1615922471132173,3,3,-4,-9,2,0,-1,-1
1615922471148238,-1,-1,-7,-1,-8,-4,1,0
1615922471148238,-3,-3,15,6,41,1,-2,-1
1615922471149158,2,1,-18,-2,23,-3,1,0
1615922471149158,-3,-3,2,-4,-46,-12,-2,-3
1615922471161096,2,1,1,0,16,9,2,4
1615922471161096,-1,5,-1,-10,-41,-11,-2,-2
1615922471170072,1,-1,11,5,16,0,1,1
1615922471170072,-2,-7,-12,-5,11,-2,-2,-1
1615922471184135,-2,-4,9,5,-13,14,3,0
1615922471184135,-3,-5,-23,-3,3,-18,-4,-1
1615922471192013,0,5,8,3,4,5,0,0
1615922471192013,-2,-2,-16,-2,23,2,-2,0
1615922471198998,-3,-4,14,0,13,-7,-1,-2
1615922471198998,2,2,-7,2,6,10,-1,1
1615922471206972,-1,-2,-4,-3,-31,-1,0,-2
1615922471206972,0,2,12,1,-2,-2,-2,0
1615922471221933,-2,0,-10,1,11,-4,-4,-3
1615922471221933,-3,-1,2,1,-8,0,-1,-2
1615922471229912,-3,1,10,-1,-7,-6,-1,0
1615922471229912,-1,1,1,-3,-33,-10,-3,-2
1615922471253000,0,2,14,5,18,-1,-1,0
1615922471253000,-2,-3,-4,-5,-51,-6,1,-2
1615922471253997,2,0,3,-6,11,-1,-3,1
1615922471253997,-2,-2,-2,3,-16,5,0,0
1615922471258983,-1,-4,-9,-9,5,6,-1,-1
1615922471258983,-1,-2,3,1,19,-6,-2,-2
1615922471265965,-2,-2,-13,-1,-5,5,1,1
1615922471265965,-1,0,0,-2,-15,-7,-3,0
1615922471281978,-2,3,-12,-1,7,1,-2,-2
1615922471281978,1,-2,2,-2,-16,-4,1,2
1615922471288927,-2,-1,-6,2,27,11,2,-2
1615922471288927,1,3,4,0,-36,-1,2,0
1615922471303867,-1,-3,-17,-5,24,-4,0,-2
1615922471303867,0,-1,22,1,17,-1,-1,1
1615922471311962,-2,1,-12,3,-2,-1,3,-2
1615922471311962,-2,-3,7,1,-15,-4,1,-1
1615922471326907,-2,-1,-15,-5,-7,-8,1,0
1615922471326907,-2,-1,6,1,36,4,-4,-4
1615922471327899,-1,0,20,-4,-24,-9,-3,-2
1615922471327899,-1,-3,-6,1,19,-3,-1,0
1615922471341862,0,2,10,5,3,4,1,0
1615922471341862,-2,2,-5,-3,19,-4,-2,-3
1615922471349839,-1,-4,-13,-1,-23,5,0,-1
1615922471349839,0,-1,-7,-13,-7,-19,1,0
1615922471363802,0,-3,12,9,-22,-2,-2,-2
1615922471363802,1,-2,-3,3,2,0,1,2
1615922471371780,1,0,3,-2,20,11,0,2
1615922471371780,-1,2,6,3,-33,8,1,0
1615922471386742,-1,-3,-15,-10,-15,-7,-1,1
1615922471386742,-1,1,14,6,-6,2,-1,-2
1615922471387755,-1,-2,-7,-1,6,-1,-3,-2
1615922471387755,-2,-3,1,2,31,5,0,-2
1615922471401704,-1,1,-4,-5,-47,11,0,-2
1615922471401704,-3,-6,-15,1,15,-16,-4,-1
1615922471409680,-2,0,18,-1,14,-2,-1,-1
1615922471409680,-2,-2,0,1,24,8,2,-3
1615922471423642,3,1,-5,-1,1,1,2,0
1615922471423642,-2,-3,-5,-6,-14,1,0,-3
1615922471432642,0,1,-8,-4,-14,-7,-2,-1
1615922471432642,-1,-3,-13,-8,51,7,-3,-3
1615922471455561,-3,-2,17,5,-19,-3,-2,1
1615922471455561,-1,2,-6,-1,11,4,0,-1
1615922471455561,-2,-3,-18,-5,3,-13,-2,-1
1615922471455561,0,1,3,-1,-6,7,-4,-2
1615922471461540,2,-1,-12,-9,-3,-8,0,-1
1615922471461540,0,2,14,6,-29,0,1,-1
1615922471469519,-1,-3,-3,-3,2,0,-2,0
1615922471469519,-2,-3,-6,1,-70,-34,-3,-1
1615922471483589,-2,2,6,2,10,-2,1,0
1615922471483589,-2,-1,14,-2,10,9,0,-2
1615922471492458,0,0,9,3,-28,1,1,2
1615922471492458,-1,-3,-9,2,17,11,-1,-1
1615922471507541,-3,-3,-15,-5,61,6,0,-2
1615922471507541,0,1,16,8,-10,7,-1,-1
1615922471507541,1,2,-4,-2,-9,-12,-2,-1
1615922471507541,0,0,-11,-4,16,7,-1,-3
1615922471530541,-4,0,8,-1,23,-7,-2,-3
1615922471530541,-3,-6,-13,-10,-41,0,-1,0
1615922471531511,0,1,1,5,-5,-4,-2,0
1615922471531511,-1,1,0,-2,-15,-20,-1,2
1615922471544476,-2,-5,-15,-4,-10,-5,-3,-3
1615922471544476,2,3,16,4,17,7,3,2
1615922471552581,-2,-3,-3,-3,-40,-15,-2,-2
1615922471552581,0,-3,-3,-1,57,18,2,1
1615922471567540,-1,-2,13,3,2,1,-2,-1
1615922471567540,-2,-1,-12,-1,19,-7,-1,-2
1615922471567540,-3,-1,-3,8,65,15,-1,-2
1615922471567540,0,5,22,4,-8,2,2,-2
1615922471581503,0,-3,-16,0,0,0,-2,0
1615922471581503,1,-1,-13,-8,-5,1,0,0
1615922471589482,-2,-2,-1,-4,10,-6,-1,-1
1615922471589482,-2,-4,-4,-1,-21,-1,-1,-1
1615922471604504,-2,-1,3,-2,1,-19,-3,-2
1615922471604504,1,4,1,-3,-45,5,1,-1
1615922471612520,-2,-2,-13,-10,-18,-1,-1,-2
1615922471612520,0,1,6,5,5,-1,-3,-1
1615922471627380,-3,-1,11,3,-23,2,-1,-1
1615922471627380,-1,-2,-4,-1,22,-5,-1,-1
1615922471628378,0,-4,-13,-7,-30,-5,-2,-1
1615922471628378,1,3,14,-3,21,4,0,3
1615922471641368,2,2,16,17,65,6,1,4
1615922471641368,-1,-3,-11,-12,-59,-15,-1,-1
1615922471649557,0,-2,0,1,3,-7,-3,-1
1615922471649557,0,-2,-2,-1,-40,-1,-2,-1
1615922471664408,0,0,0,-3,-6,9,-1,-1
1615922471664408,-2,-1,4,2,31,-2,0,-1
1615922471672387,0,-2,-14,-9,11,8,1,1
1615922471672387,-2,3,3,3,18,-4,-2,-2
1615922471687347,0,-3,-3,0,-8,0,-2,-2
1615922471687347,-1,2,-3,2,8,2,-2,-2
1615922471688345,-2,-3,1,2,-4,6,0,-1
1615922471688345,-2,-2,-2,-4,-13,8,1,0
1615922471703310,1,0,-7,-4,4,3,1,1
1615922471703310,-2,-4,-12,-2,-3,1,1,-2
1615922471709294,-1,4,14,0,15,4,1,-1
1615922471709294,0,-1,6,7,12,2,0,-1
1615922471724255,-1,-1,-10,-7,-11,-2,-1,-2
1615922471724255,0,-5,-10,-6,-66,-3,-1,0
1615922471732233,0,0,10,5,-3,-4,1,-1
1615922471732233,-1,-5,-22,-10,-9,2,1,0
1615922471747300,1,2,15,-2,-47,15,0,-1
1615922471747300,0,-4,1,3,50,-8,0,-2
1615922471748190,1,6,17,1,-56,-1,-2,-4
1615922471748190,0,-3,-6,1,34,4,0,0
1615922471778238,-3,-2,-17,-3,-1,-5,-1,-1
1615922471778238,0,4,23,8,7,0,-1,1
1615922471778238,-1,-2,7,7,2,-2,-2,1
1615922471778238,-3,-2,-15,-9,-9,-5,-1,-3
1615922471784224,-1,2,14,5,21,-11,0,0
1615922471784224,-1,-2,-10,-7,-52,-10,-2,0
1615922471792227,-5,-3,-7,-2,41,1,-3,-3
1615922471792227,-2,-2,-5,-3,28,15,0,-3
1615922471807166,-2,-4,-9,-9,1,-25,-4,-3
1615922471807166,2,4,16,10,2,-3,1,1
1615922471808160,1,-4,-4,-5,-19,6,-3,-5
1615922471808160,0,6,14,8,9,-7,0,-1
1615922471821125,-1,-3,-12,-7,-8,6,0,-2
1615922471821125,-2,-1,-1,-5,20,-4,-1,-1
1615922471830102,0,-1,1,-2,16,-4,1,1
1615922471830102,-2,-2,-12,-4,-24,3,2,0
1615922471844069,-3,-1,15,6,-3,3,-1,-3
1615922471844069,-2,-4,-23,-11,3,5,-2,-3
1615922471852044,-1,-3,-8,5,28,10,0,1
1615922471852044,-1,1,16,0,-27,-10,-3,-2
1615922471867003,-1,2,-5,-6,-53,-15,0,1
1615922471867003,-4,-5,-15,-14,25,13,-1,0
1615922471868001,-4,-1,0,-7,-10,-7,2,-2
1615922471868001,1,0,0,10,7,-2,-2,0
1615922471881964,-3,-7,-20,-7,25,-5,0,-2
1615922471881964,-2,1,21,10,9,16,-2,0
1615922471889941,-3,-4,-9,-9,-50,-7,-2,-1
1615922471889941,-2,-2,3,-4,-16,-1,-1,-1
1615922471903908,1,3,4,2,11,5,-3,0
1615922471903908,-2,-2,-7,4,-2,-5,-3,-5
1615922471912033,-1,1,5,3,35,1,-1,0
1615922471912033,0,-5,-1,-7,-39,-5,3,-2
1615922471926996,2,6,4,3,-10,-2,1,3
1615922471926996,-1,-1,-14,2,45,1,-2,-2
1615922471927965,-4,-5,-7,-5,-14,-9,-2,-2
1615922471927965,2,4,4,3,1,0,-3,0
1615922471940954,-2,-4,-10,-6,-33,-21,1,0
1615922471940954,2,3,11,4,39,2,1,4
1615922471950077,2,-4,0,0,-8,6,2,1
1615922471950077,0,1,-3,-2,-27,-9,-3,-2
1615922471964007,-1,2,-3,5,-8,4,-3,-2
1615922471964007,-1,-3,-2,-3,-22,1,1,-1
1615922471979965,0,2,1,2,-22,7,0,2
1615922471979965,-1,-1,11,2,9,-3,-2,0
1615922471986947,-1,-4,-1,3,11,11,1,-4
1615922471986947,-2,-5,-27,-15,-23,-9,-2,0
1615922471987944,2,11,28,11,-22,15,1,1
1615922471987944,-2,-3,-4,-4,10,-18,-1,0
1615922472001907,-2,-3,3,-6,-13,2,-4,-4
1615922472001907,1,4,2,2,25,5,2,0
1615922472010006,-5,-7,-4,-2,6,-1,1,-3
1615922472010006,2,3,-3,2,-14,1,0,3
1615922472023968,0,-2,21,-3,0,-7,-1,-1
1615922472023968,1,0,-7,3,22,-1,1,0
1615922472032047,-1,0,-5,-3,-15,-2,-2,-1
1615922472032047,-3,-2,10,9,39,-7,-1,-3
1615922472046908,-1,-2,-13,-9,-6,3,-2,0
1615922472046908,-1,-3,22,6,23,-3,-1,-2
1615922472054906,-2,2,-11,-2,14,-4,-1,-2
1615922472054906,-3,-5,-11,-9,2,-8,-3,-4
1615922472061868,0,-2,-10,-11,-17,11,-1,-1
1615922472061868,-1,1,27,14,-37,-5,-1,-2
1615922472069870,-1,-2,-18,-3,83,6,-1,-2
1615922472069870,-1,-3,0,-3,-12,-2,-1,-3
1615922472083917,4,1,11,5,5,3,3,3
1615922472083917,1,4,-5,-2,-10,-4,-1,1
1615922472091787,0,-7,-16,-7,30,-1,-1,0
1615922472091787,-3,-2,9,3,-71,-1,-1,-4
1615922472106747,0,-4,-22,-4,34,3,0,3
1615922472106747,-1,4,21,-1,-6,8,1,0
1615922472114745,1,0,12,6,-7,-12,-2,0
1615922472114745,2,1,10,3,-6,3,-1,2
1615922472121707,-2,-6,-8,5,27,6,-2,-3
1615922472121707,-2,-4,-6,-10,-21,-9,0,-1
1615922472129752,3,3,4,1,-20,7,1,1
1615922472129752,-4,-4,-14,-7,61,10,-3,-1
1615922472143714,-4,3,12,6,-3,-14,-2,-3
1615922472143714,-1,-3,-6,-2,16,3,0,-2
1615922472159666,-2,-6,-20,0,1,-3,-4,-2
1615922472159666,3,5,18,-2,-2,-10,1,2
1615922472166647,2,5,2,11,16,4,1,1
1615922472166647,-4,-3,-8,-12,-20,-3,-4,-2
1615922472182605,-1,1,-14,3,-17,-8,-2,-3
1615922472182605,2,2,-22,4,24,11,1,2
1615922472184600,1,0,4,-4,21,-8,0,-1
1615922472184600,1,4,18,6,-19,5,-1,-3
1615922472189587,-1,-4,-8,-10,-18,-2,0,-1
1615922472189587,-3,-6,-4,8,9,4,-3,-3
1615922472203554,-2,0,-1,-2,-1,8,-1,-3
1615922472203554,-2,-2,-18,2,-1,2,-1,-1
1615922472212732,-1,-1,6,-10,2,-11,-2,0
1615922472212732,1,2,8,4,-16,6,2,1
1615922472226615,-2,-7,-7,1,-12,-8,-3,-1
1615922472226615,-2,1,-9,-14,-35,-1,-1,-2
1615922472234594,-2,-1,1,6,5,2,0,0
1615922472234594,-1,1,0,-2,0,-3,0,-2
1615922472258681,-2,-3,-6,-1,-27,-4,-2,0
1615922472258681,-1,-4,-4,-1,42,0,-2,-1
1615922472259655,1,0,17,-5,-15,3,-2,-2
1615922472259655,-2,4,-12,1,-26,5,1,-1
1615922472263644,-2,-3,19,4,12,-15,-1,0
1615922472263644,1,0,-7,1,7,0,-2,-1
1615922472271623,-1,-1,-7,-6,-2,-2,-4,-2
1615922472271623,0,-5,-5,0,9,-8,-4,-2
1615922472286586,0,0,-2,-1,-21,12,-1,-1
1615922472286586,0,1,-6,-2,-16,-10,-2,0
1615922472294562,1,2,10,6,11,0,0,1
1615922472294562,-2,-5,-10,-9,-29,-9,0,-3
1615922472310519,-1,1,-1,6,58,2,0,-3
1615922472310519,-2,-1,-11,-6,-2,-3,-2,-3
1615922472311550,1,-3,-2,-1,-20,0,0,1
1615922472311550,-2,-4,-1,-6,-46,-4,-3,-2
1615922472332559,3,0,1,-6,4,10,3,4
1615922472332559,-1,-1,15,3,-16,4,-4,-2
1615922472333457,-1,3,-3,-5,8,1,1,-1
1615922472333457,-6,-6,-9,-7,-9,-13,-5,-4
1615922472346522,0,6,7,5,-11,-2,-1,2
1615922472346522,-2,-2,-2,-1,-13,-2,1,0
1615922472354635,-3,-3,-4,2,-1,0,-1,-3
1615922472354635,-1,3,12,3,22,16,0,0
1615922472370485,-3,-7,-19,-7,8,-18,-4,-4
1615922472370485,1,1,-7,-8,-29,3,-1,1
1615922472371483,1,2,29,17,33,-5,-1,2
1615922472371483,0,-2,-11,0,2,7,0,0
1615922472384449,2,2,0,-3,-30,-26,-2,0
1615922472384449,1,-2,4,3,10,-4,2,0
1615922472392427,-4,-7,-7,-8,-20,-6,-3,-2
1615922472392427,1,8,6,3,91,4,2,0
1615922472406624,-1,-1,-2,-6,-53,5,-1,-1
1615922472406624,-2,-3,-12,1,10,-2,-2,-3
1615922472414525,2,2,-7,-9,-15,-5,-1,0
1615922472414525,-1,-6,5,3,-14,-3,0,0
1615922472430463,-1,1,-10,-1,0,4,-2,-2
1615922472430463,0,-4,-2,-7,12,-5,2,0
1615922472431460,-1,5,-5,1,13,8,1,0
1615922472431460,0,-2,-9,1,65,4,0,0
1615922472444525,1,0,14,2,4,5,2,0
1615922472444525,0,-2,-1,-1,4,15,-1,2
1615922472459385,-1,-5,6,8,1,-7,1,0
1615922472459385,0,3,-1,0,12,11,3,1
1615922472466367,-5,-4,-6,-4,-19,-1,-4,-2
1615922472466367,-1,1,7,3,6,-5,0,-1
1615922472474346,-3,-5,1,-4,30,-7,-3,-3
1615922472474346,-1,-6,-15,-9,-31,0,-2,-1
1615922472489306,1,4,15,9,28,4,1,0
1615922472489306,1,2,4,3,-18,-2,1,-1
1615922472506261,-2,-2,-7,-7,13,-4,-1,1
1615922472506261,0,-3,-2,2,25,-5,1,-1
1615922472507258,-1,0,13,0,-1,7,0,-1
1615922472507258,-1,-2,-6,-1,-6,-8,-3,-3
1615922472513242,2,2,3,5,-7,14,2,3
1615922472513242,0,-6,-6,-7,-24,-13,-4,-2
1615922472526207,-2,0,2,2,-3,6,2,-1
1615922472526207,0,-1,-11,-2,-7,-6,-1,0
1615922472536321,-3,-2,4,4,16,3,-2,-4
1615922472536321,0,-1,1,-6,-26,-7,-2,0
1615922472549586,0,-1,19,5,6,6,0,-2
1615922472549586,-2,-1,-8,-2,-66,-7,-2,-2
1615922472557536,0,0,-26,-9,-15,-3,-1,-2
1615922472557536,0,2,32,8,-6,-3,0,1
1615922472564516,-1,-4,-18,-6,-6,-9,-2,0
1615922472564516,1,2,-1,4,29,6,3,1
1615922472573492,-1,2,5,-3,-34,-6,-1,-2
1615922472573492,-2,-3,-11,-1,-16,-2,0,-2
1615922472586457,-2,-3,4,-7,4,5,-1,0
1615922472586457,-2,-4,-6,2,21,2,-1,0
1615922472595433,0,2,5,4,-43,-2,-2,-1
1615922472595433,-1,6,22,1,6,-5,-1,1
1615922472609529,-4,-8,-40,-18,15,-17,-5,-1
1615922472609529,1,6,43,20,-1,5,-3,-1
1615922472617535,-1,-3,-15,-11,41,-10,-3,-2
1615922472617535,-1,2,3,1,8,-1,-2,-2
1615922472623517,-3,-1,-2,2,19,8,2,-1
1615922472623517,-6,-6,-9,-8,7,4,-4,-4
1615922472633490,3,1,4,5,6,5,2,2
1615922472633490,0,-4,-2,-3,-48,-7,0,-1
1615922472646452,2,-1,-8,1,13,-3,0,-1
1615922472646452,1,-1,-7,-9,10,0,1,2
1615922472655407,-4,0,17,9,-16,-16,-2,-2
1615922472655407,-2,-5,-13,-6,3,3,-1,0
1615922472669396,-2,2,-10,3,-18,4,1,-2
1615922472669396,-1,-6,-14,-10,18,1,-2,-1
1615922472678346,-3,-4,2,1,-63,-10,-2,-2
1615922472678346,1,4,5,-1,29,-4,0,1
1615922472684362,0,1,-5,-2,43,3,-2,-2
1615922472684362,-2,-1,13,4,-4,5,-1,-4
1615922472693306,0,-2,-15,-7,12,-1,-1,-4
1615922472693306,-3,-5,-4,0,-3,2,-1,1
1615922472706292,1,-2,-1,-7,-18,7,0,0
1615922472706292,0,3,2,1,-7,-5,-1,-1
1615922472715248,2,0,6,4,14,0,2,2
1615922472715248,-2,1,15,8,-21,11,1,-4
1615922472729210,-2,1,14,-3,24,18,-2,1
1615922472729210,3,0,-7,-6,-1,-8,-1,3
1615922472738187,-5,-3,-1,1,-18,8,2,-4
1615922472738187,0,-1,-3,-5,-43,-12,-3,-2
1615922472744279,-6,-5,0,4,43,6,-1,-3
1615922472744279,0,-2,-6,-2,28,5,-2,-1
1615922472753284,1,1,-6,-5,-12,-1,0,3
1615922472753284,-4,-4,-4,-4,-2,4,-1,-2
1615922472766249,-1,3,13,4,-19,-17,0,-3
1615922472766249,-2,-5,-12,-6,21,-8,-2,-1
1615922472775225,3,-1,-7,0,14,6,-6,-2
1615922472775225,1,-3,-16,-5,1,3,-1,1
1615922472789321,3,0,27,11,-30,-1,1,3
1615922472789321,-3,-1,-9,2,34,-1,2,-2
1615922472798296,-2,2,6,-8,20,3,0,-3
1615922472798296,0,0,0,5,4,5,1,-4
1615922472804284,1,-2,-17,-10,-42,-3,-4,1
1615922472804284,-2,0,7,7,55,7,1,-4
1615922472813256,-1,-5,1,1,-21,-1,0,0
1615922472813256,-1,-1,-6,-2,21,5,1,-3
1615922472826222,1,6,-6,-6,-77,3,1,-1
1615922472826222,-2,-2,-4,0,-25,-4,-1,1
1615922472836210,-3,0,-2,-11,9,-3,2,0
1615922472836210,1,0,-6,12,-10,-1,2,3
1615922472849373,-4,-8,-13,-6,10,-11,-4,-4
1615922472849373,-1,3,-4,1,-7,9,2,0
1615922472858249,-1,-3,11,3,0,-1,-1,1
1615922472858249,-1,-4,-3,-11,-27,-1,1,0
1615922472864238,1,0,3,-2,11,-8,-3,0
1615922472864238,-1,-5,-23,-2,-13,11,-1,0
1615922472873209,1,0,-3,2,15,-7,0,-2
1615922472873209,-2,3,7,4,7,-13,-3,0
1615922472887172,-1,-3,-15,-5,19,0,-1,-2
1615922472887172,-4,-4,4,-5,33,8,0,-3
1615922472895151,-1,2,-2,0,-35,1,-1,2
1615922472895151,-2,-2,-7,-3,10,-1,-3,-2
1615922472909349,0,-1,4,-2,11,3,2,0
1615922472909349,-1,3,14,3,-20,-9,-2,-2
1615922472918217,-2,-2,-11,2,17,8,1,1
1615922472918217,1,6,21,1,29,-3,0,0
1615922472924201,-1,-2,3,5,-36,-4,0,-2
1615922472924201,-1,1,12,-8,-62,-11,2,0
1615922472933176,-1,1,4,6,37,6,0,-2
1615922472933176,1,-1,-7,-8,-12,-7,-3,0
1615922472946147,0,-3,-12,-4,6,6,-2,1
1615922472946147,1,1,12,8,-20,-6,-4,0
1615922472955118,1,-2,-16,-13,8,-4,-2,-3
1615922472955118,-5,4,18,5,-42,-8,-2,-2
1615922472969081,0,0,5,-3,29,10,4,-1
1615922472969081,1,-7,-18,-6,1,-16,0,2
1615922472978056,0,4,-1,-1,19,1,0,-2
1615922472978056,1,0,9,4,9,1,1,1
1615922472984041,0,-1,-22,-5,-20,5,-3,-2
1615922472984041,0,-1,-1,1,3,-6,-2,-1
1615922472993017,-1,-2,19,11,-31,1,-1,-2
1615922472993017,-2,-8,-24,-10,22,-7,-1,-3
1615922473006980,-3,-2,3,3,-6,-17,0,-1
1615922473006980,-2,-3,-15,-3,21,7,1,1
1615922473015979,0,1,4,-4,-12,-4,-1,-1
1615922473015979,-1,-3,-10,-2,-3,-6,-3,-2
1615922473037901,2,2,6,-3,8,-4,1,2
1615922473037901,0,-1,18,7,11,-7,-3,-2
1615922473039896,-1,-1,-18,-8,-79,12,-1,-2
1615922473039896,1,4,9,-1,-7,2,1,1
1615922473043885,-2,-2,-16,0,21,-4,-1,1
1615922473043885,-2,1,11,-4,29,11,1,0
1615922473058841,0,-2,1,5,63,14,-2,-1
1615922473058841,0,-4,-9,-4,5,7,-1,0
1615922473066836,0,1,18,11,24,3,-4,-4
1615922473066836,0,-3,-19,-7,-27,3,-1,-3
1615922473075824,1,1,4,1,14,-12,0,3
1615922473075824,-1,0,-7,-4,-8,10,0,-2
1615922473088783,-3,0,11,7,-7,-3,0,-1
1615922473088783,-1,3,6,-2,9,-1,-1,-2
1615922473097741,-1,-2,-2,-3,1,2,-1,1
1615922473097741,-2,-7,-11,-2,-8,-19,0,-3
1615922473103722,2,2,8,-4,-19,6,2,1
1615922473103722,0,5,11,4,-15,1,-2,-1
1615922473120676,-3,-4,-14,-2,56,8,0,-3
1615922473120676,1,2,35,13,-12,9,0,2
1615922473126660,-3,-6,-6,-3,-11,-2,-1,-3
1615922473126660,-2,-3,-12,-11,-16,-16,-2,-3
1615922473136633,0,0,13,4,-15,-7,2,-3
1615922473136633,0,-2,-22,-4,0,17,-1,-1
1615922473148627,-2,-4,-2,1,-11,-12,-2,-2
1615922473148627,3,1,2,0,-22,-1,0,0
1615922473157628,-2,-4,-7,-4,12,10,0,0
1615922473157628,1,1,-1,-6,-8,-25,-4,-1
1615922473163594,-2,0,-3,1,-10,4,-1,-2
1615922473163594,1,-2,4,-1,3,-3,0,2
1615922473172570,-4,-4,-13,5,11,-4,-1,-1
1615922473172570,-1,-1,1,-4,19,-1,0,-2
1615922473195533,-3,-2,-12,-6,27,9,2,-1
1615922473195533,-2,1,2,5,-7,-9,-2,0
1615922473196530,-1,1,-1,-5,-37,-10,1,-1
1615922473196530,-3,-5,-15,-2,38,12,2,-1
1615922473209494,2,7,37,11,12,-4,-1,0
1615922473209494,-2,-5,-15,-4,-21,5,0,-2
1615922473218465,0,0,1,-5,-18,-10,-3,-1
1615922473218465,0,-1,-8,-5,6,4,-2,-1
1615922473232430,-2,-7,-9,0,-8,-5,0,-1
1615922473232430,0,4,6,-7,-6,-22,-1,-2
1615922473235419,3,-1,-8,-2,-64,-13,-2,2
1615922473235419,-2,5,34,10,69,5,-4,-1
1615922473246410,0,-5,-15,-7,-21,-4,1,0
1615922473246410,-2,-3,-11,-7,-34,9,-1,-2
1615922473255367,2,4,18,15,31,0,1,0
1615922473255367,-2,-5,-18,-8,-54,-21,-3,-2
1615922473269329,-1,-1,4,3,-9,8,-2,-2
1615922473269329,1,-2,-9,-11,7,-1,2,3
1615922473278305,-3,1,11,5,-5,7,-2,0
1615922473278305,-3,-3,-10,-4,-17,-25,-2,-2
1615922473293289,2,5,4,-1,10,-2,0,-1
1615922473293289,-3,1,1,2,-17,-4,-2,-1
1615922473294291,-3,-7,-1,-1,14,-2,-2,-1
1615922473294291,-2,0,10,5,-65,2,-2,-2
1615922473306234,-1,-1,-3,-6,-23,-6,-1,0
1615922473306234,-2,-3,9,1,13,2,-2,-3
1615922473315210,1,-1,-5,0,2,4,1,0
1615922473315210,0,4,3,-1,9,0,1,-1
1615922473329217,-4,-7,-17,-7,22,-3,0,-1
1615922473329217,-1,0,-8,-4,-29,2,-1,-2
1615922473337960,-2,0,0,-6,6,-3,-4,-3
1615922473337960,1,-2,0,1,18,11,2,1
1615922473352943,-1,3,-9,-4,2,14,-1,2
1615922473352943,-2,-3,15,7,16,2,0,-1
1615922473354915,-1,-2,-4,-9,37,-7,0,0
1615922473354915,-2,-1,-7,-2,27,8,0,-1
1615922473366884,3,3,2,0,-27,-9,2,2
1615922473366884,-1,-3,-10,3,33,3,0,1
1615922473375883,0,4,8,-2,-10,1,0,0
1615922473375883,2,1,6,-1,-9,2,0,0
1615922473388960,-1,-3,-10,-5,20,9,-1,-2
1615922473388960,0,3,20,6,-22,-16,-3,-2
1615922473397937,-2,-6,-15,-5,-18,-4,0,1
1615922473397937,-3,-2,-5,-6,-24,5,0,-1
1615922473413254,-2,-3,-10,0,-19,-4,-3,-1
1615922473413254,-1,-1,-5,-2,-26,15,1,-2
1615922473414253,0,1,6,-4,9,-7,-2,0
1615922473414253,-2,-6,-8,0,-2,0,-2,-1
1615922473426221,-1,-3,-6,-4,-9,-14,-3,-2
1615922473426221,-1,-2,-5,4,61,-1,2,0
1615922473441726,-1,1,0,4,-16,3,-1,-3
1615922473441726,-2,-5,-17,-10,-14,7,-1,-1
1615922473448956,-1,2,22,8,16,-7,-1,0
1615922473448956,-3,-5,-18,-4,0,0,-1,-3
1615922473457824,1,4,21,-4,6,-2,2,0
1615922473457824,-1,-2,-2,2,-30,-1,1,0
1615922473472783,0,-3,-21,-12,18,-17,-2,-2
1615922473472783,0,0,7,4,-2,-2,-1,1
1615922473474778,-2,-7,-30,-10,3,-3,-1,-2
1615922473474778,0,3,35,13,-7,-7,-1,-3
1615922473486746,1,0,1,0,39,4,0,1
1615922473486746,-1,-3,-7,-4,-15,-1,0,0
1615922473495722,-4,-4,1,0,-5,-6,-3,0
1615922473495722,-2,-1,-12,-3,40,2,-2,-1
1615922473508930,-2,-1,3,5,-40,4,1,-4
1615922473508930,2,2,-2,-3,-6,-9,-1,-1
1615922473517805,-1,-1,-23,0,-3,-2,0,-2
1615922473517805,-3,0,19,1,-4,-6,0,-1
1615922473532788,-3,-3,13,5,19,1,-3,-2
1615922473532788,-1,-3,-11,-3,22,6,0,-1
1615922473534762,3,-2,-9,1,6,-1,0,1
1615922473534762,3,2,-6,-2,-22,-15,-1,1
1615922473546745,-2,-5,-9,0,-10,2,0,-1
1615922473546745,-3,-2,2,-5,6,0,-5,-3
1615922473555705,2,0,0,2,18,9,1,3
1615922473555705,-1,-1,2,-1,40,10,0,0
1615922473568670,0,2,5,-1,5,9,2,-1
1615922473568670,0,1,2,6,-7,11,1,3
1615922473577680,-2,0,1,-5,37,2,-4,-3
1615922473577680,2,0,-8,-5,-4,-1,-1,0
1615922473592606,-2,0,10,2,-17,-2,-1,-2
1615922473592606,-1,-3,-4,0,6,15,0,-2
1615922473594600,2,2,3,-2,7,0,1,1
1615922473594600,-1,1,-5,5,-2,4,0,0
1615922473606645,-2,-3,11,-1,16,-1,-1,-3
1615922473606645,1,1,0,12,-5,1,1,1
1615922473615544,-2,-1,-1,-3,-19,-4,0,-1
1615922473615544,-1,-3,-11,-10,-13,-1,0,-1
1615922473629563,0,-1,-1,2,7,3,-3,1
1615922473629563,0,5,6,3,-33,-11,-2,-2
1615922473646136,-2,-3,-6,-7,15,0,-4,-5
1615922473646136,-1,-4,-13,-5,-19,-2,-2,-2
1615922473652109,2,4,17,3,21,-6,0,1
1615922473652109,-1,-2,-11,-11,-27,-12,-1,0
1615922473659112,-1,3,7,6,63,16,-2,1
1615922473659112,0,-1,-1,-2,-16,-3,0,-3
1615922473667065,-1,-4,-4,-1,-9,2,-2,-3
1615922473667065,1,2,-4,-2,12,13,1,-1
1615922473675068,-3,-2,12,1,-27,-13,-1,-2
1615922473675068,-3,2,1,3,20,-6,-2,0
1615922473689005,-2,-2,-12,-9,-16,2,0,0
1615922473689005,-1,-4,-8,1,20,0,-2,-4
1615922473697981,0,-2,17,2,-16,-4,1,-1
1615922473697981,0,-1,-9,1,0,-2,-1,-2
1615922473719945,-2,-3,-7,-4,-8,-9,-2,0
1615922473719945,-1,-2,-3,-3,15,-11,-2,-2
1615922473721917,-3,-3,-12,-4,-34,2,1,-1
1615922473721917,-3,-3,1,1,26,0,2,-1
1615922473726903,-2,3,5,1,20,16,-1,-2
1615922473726903,-2,-2,9,-2,12,2,-1,-2
1615922473736017,1,0,-9,-6,-42,-19,-1,-1
1615922473736017,-1,-3,6,5,7,3,-1,-1
1615922473749002,-4,-2,-3,-4,-27,-11,-3,-1
1615922473749002,-1,-4,-17,0,-8,2,0,0
1615922473757957,1,5,15,-2,5,5,-1,-1
1615922473757957,-3,-6,-4,-1,-5,-1,0,-4
1615922473771919,1,2,-2,-4,-11,-7,1,1
1615922473771919,-2,-2,11,7,39,2,-2,-1
1615922473780895,-2,-4,-8,2,-35,-11,1,0
1615922473780895,-2,-2,-10,-4,8,-14,-3,-1
1615922473786879,0,-2,-11,-2,20,10,-1,-1
1615922473786879,2,5,1,-1,56,-7,2,1
1615922473795855,-2,-4,-7,-2,-32,-5,-5,-2
1615922473795855,0,7,21,5,19,8,0,-1
1615922473808931,1,-2,-12,-2,25,3,4,1
1615922473808931,-2,-1,19,-1,-36,-11,-2,-1
1615922473817914,0,-3,-1,3,-12,-7,-4,-2
1615922473817914,1,-4,-15,-4,1,5,3,2
1615922473831876,-2,-1,-7,-3,-37,-14,-1,-2
1615922473831876,-2,-1,-6,-7,-20,5,0,-1
1615922473840852,-4,-3,2,-2,18,15,1,1
1615922473840852,0,-1,-8,-1,-31,-3,-1,-2
1615922473846836,-2,-2,1,-5,-3,-5,-2,-5
1615922473846836,1,-2,0,4,-2,-7,0,1
1615922473855812,0,1,-1,2,39,27,2,-1
1615922473855812,-2,-1,4,-2,-51,2,-2,1
1615922473869774,-3,-1,0,1,41,22,2,0
1615922473869774,0,-2,-12,-7,1,-12,-5,-1
1615922473877756,0,-1,5,-1,-25,-4,2,1
1615922473877756,2,1,18,5,30,2,1,-1
1615922473891715,0,-2,-2,2,-26,-1,1,0
1615922473891715,0,0,-2,-4,-18,1,1,1
1615922473900692,1,0,-10,-5,-3,-9,-1,-1
1615922473900692,-2,-3,-8,-5,-12,1,0,-1
1615922473906703,0,2,0,1,-22,-14,-2,1
1615922473906703,-3,-4,0,-6,-16,-2,1,-1
1615922473922632,-3,-7,-16,-5,-36,-9,-1,-3
1615922473922632,1,9,36,9,21,-9,-3,0
1615922473928620,-2,-1,-7,-4,-61,-1,0,-1
1615922473928620,-1,-1,-7,-1,-14,10,-1,-3
1615922473937694,-1,-2,10,2,17,-12,-4,-2
1615922473937694,3,1,0,7,8,3,1,-1
1615922473951679,-3,-1,3,-2,19,-5,-1,1
1615922473951679,-1,0,3,-1,-19,-2,-3,-3
1615922473967639,0,0,1,2,12,-5,-2,-1
1615922473967639,-3,-3,-5,-10,18,1,-1,-3
1615922473967639,0,0,6,2,-28,-1,-1,-1
1615922473967639,-1,-4,-7,0,31,-8,-1,0
1615922473975617,-2,3,7,-2,-9,-2,1,-1
1615922473975617,-1,-5,-40,-7,-14,-2,2,1
1615922473998554,1,2,23,2,22,5,-2,-1
1615922473998554,0,1,9,6,-23,-10,-1,-1
1615922473999551,0,0,-8,-3,18,-13,-2,0
1615922473999551,-1,0,4,-1,-4,7,-1,0
1615922474011519,-1,-1,-8,-2,-18,-5,-2,0
1615922474011519,-3,-3,0,-4,37,0,-2,0
1615922474020495,1,4,23,7,-25,-3,-3,-1
1615922474020495,-1,-1,-7,-4,0,-4,-1,0
1615922474026479,0,0,-7,1,25,1,-3,-2
1615922474026479,-4,-2,0,-3,4,-7,-4,-2
1615922474035456,-1,1,14,10,-2,3,2,3
1615922474035456,-5,-8,-6,-5,-5,-12,-6,-4
1615922474049361,2,4,1,0,1,1,4,3
1615922474049361,-2,-4,-17,-7,-14,2,1,-1
1615922474058468,0,-5,2,1,45,21,-1,-2
1615922474058468,1,0,-15,-4,-25,-2,-1,0
1615922474071460,0,-3,-1,2,11,5,-1,-2
1615922474071460,0,2,-6,2,19,2,0,-1
1615922474080410,-2,-2,-4,-1,-17,-2,-1,-2
1615922474080410,1,-3,8,-2,11,9,2,1
1615922474086394,-2,-3,-7,1,-30,-1,0,0
1615922474086394,-1,2,2,-3,45,3,-2,-2
1615922474095370,-2,-7,-14,-8,-7,-2,-1,-2
1615922474095370,-1,2,3,5,2,-10,-4,-2
1615922474109397,-2,-4,-6,-7,-17,-8,0,-2
1615922474109397,0,3,13,7,-7,6,2,1
1615922474118310,0,0,-12,-5,5,0,-1,-1
1615922474118310,-2,-1,-3,-4,5,2,0,-3
1615922474131293,-1,-1,-12,0,9,-5,1,0
1615922474131293,0,-2,11,0,-30,1,-1,-1
1615922474140274,-3,-4,-8,-2,28,4,0,-2
1615922474140274,1,0,0,-5,-31,7,-1,2
1615922474155210,2,-1,-15,-2,-1,-5,-2,-1
1615922474155210,2,1,7,7,28,10,0,-1
1615922474157205,0,1,-3,1,6,1,1,1
1615922474157205,-2,1,-1,-2,3,-8,-2,-3
1615922474169173,0,-1,-5,-4,-4,-4,-2,0
1615922474169173,-4,-5,-1,1,-46,-6,-2,0
1615922474178148,1,0,5,-3,-2,-9,-2,-1
1615922474178148,0,0,-6,5,9,-10,0,0
1615922474191114,-2,-2,-5,-4,0,-28,-6,-2
1615922474191114,-1,3,7,0,-5,5,2,-1
1615922474200198,-3,-4,4,-4,-13,7,-2,-3
1615922474200198,1,3,3,3,14,-1,1,-2
1615922474215192,1,3,12,1,28,5,-1,-1
1615922474215192,-1,-7,-19,-3,18,-4,-1,-1
1615922474217187,-3,0,-6,-1,2,1,0,-2
1615922474217187,-3,-5,0,-1,39,9,1,-2
1615922474229301,-4,-3,5,2,1,-1,0,-2
1615922474229301,0,2,-13,-5,-4,2,1,-1
1615922474238277,2,-1,-5,-1,5,3,2,1
1615922474238277,-1,-4,-4,-1,22,-1,-3,-2
1615922474251242,0,1,22,4,-16,2,0,1
1615922474251242,-1,-2,-6,1,7,-9,-4,2
1615922474260218,-2,-1,-3,0,-11,-17,0,0
1615922474260218,-2,-1,-3,-5,-36,3,0,1
1615922474275205,-2,2,-1,3,70,17,2,-1
1615922474275205,1,-2,8,-3,8,-9,-3,-2
1615922474277173,0,2,3,4,-10,12,-2,-1
1615922474277173,0,-1,13,-3,-52,-12,-2,-1
1615922474289141,-2,-5,-10,-1,-31,2,0,-5
1615922474289141,1,1,1,-4,30,21,2,2
1615922474298117,-1,1,13,8,-9,-5,0,-1
1615922474298117,-1,-3,1,-3,8,1,-2,-2
1615922474311082,0,2,-3,4,-18,11,2,2
1615922474311082,-2,-2,1,-4,-50,-27,-3,-2
1615922474328043,-1,-3,-16,-9,-3,0,-2,-1
1615922474328043,-1,1,3,1,32,7,0,-1
1615922474336018,0,-3,1,-3,-46,-16,-1,0
1615922474336018,-2,1,-4,1,-50,-8,0,-1
1615922474337562,0,0,-14,-5,48,7,0,2
1615922474337562,1,2,8,4,-14,-1,1,0
1615922474349500,-3,-2,7,-2,-8,-6,-3,-5
1615922474349500,-2,-3,-6,-4,-10,0,0,-1
1615922474358477,-2,-1,2,7,-23,-8,0,-1
1615922474358477,0,1,-6,-1,-4,0,0,1
1615922474371442,-1,2,4,0,2,4,-1,-1
1615922474371442,1,0,-7,-2,30,-16,-5,0
1615922474380417,-2,2,25,4,-34,-7,-2,-3
1615922474380417,1,-3,-10,2,21,3,2,-1
1615922474395378,1,5,10,-3,-7,-18,-1,0
1615922474395378,-1,-3,-9,-5,-3,2,0,-2
1615922474397372,1,-2,-1,1,5,8,1,-1
1615922474397372,-2,-4,-3,-1,1,-9,-2,0
1615922474409578,-4,-6,-1,4,66,3,-1,2
1615922474409578,-4,0,7,1,-38,4,0,-1
1615922474418453,1,0,2,-2,-2,-10,-2,1
1615922474418453,-3,-3,0,1,-9,8,1,1
1615922474431423,0,-2,-16,-13,17,-5,-1,-2
1615922474431423,-2,-2,-6,-5,15,12,0,-2
1615922474440394,-1,-4,10,5,25,3,1,-1
1615922474440394,0,4,-4,-2,17,2,1,-4
1615922474455354,2,-2,-5,-1,-27,5,0,1
1615922474455354,-2,-4,-1,-4,-17,7,2,1
1615922474457348,1,4,8,3,-23,-4,-4,-1
1615922474457348,-1,-5,-8,-10,67,11,1,-1
1615922474478293,-1,0,4,5,-22,-12,-4,-3
1615922474478293,2,2,-1,5,-7,0,0,-2
1615922474479290,-2,-1,-7,-5,-2,6,2,-1
1615922474479290,0,2,10,3,13,-6,-3,0
