timestamp,emg1,emg2,emg3,emg4,emg5,emg6,emg7,emg8
1615922483432372,-2,0,1,2,12,1,-4,-2
1615922483432372,-3,-8,-16,-11,-24,3,-2,-4
1615922483441349,1,2,8,6,-16,-4,-2,-1
1615922483441349,-2,-6,-15,-5,12,5,2,0
1615922483455310,0,-1,-14,-6,17,4,0,0
1615922483455310,-2,0,24,5,11,-8,-1,0
1615922483462295,0,-3,-8,-9,-46,2,1,0
1615922483462295,-3,2,4,7,59,8,0,-1
1615922483478326,-1,-4,-9,-6,-7,-3,0,0
1615922483478326,0,3,-3,-2,3,1,-1,-1
1615922483486305,0,-3,-8,-1,4,4,2,-2
1615922483486305,1,1,3,3,-37,3,1,-1
1615922483492289,1,2,9,3,-9,-24,-5,0
1615922483492289,0,-5,-7,-2,27,9,-3,-2
1615922483501265,-1,3,7,1,-36,-21,-5,1
1615922483501265,-3,-2,-13,-2,-2,-2,-3,-3
1615922483515227,0,2,10,6,20,4,3,0
1615922483515227,3,-1,-6,-3,-17,-9,-1,1
1615922483522209,-1,1,-8,-3,-39,2,0,0
1615922483522209,-2,-4,-10,-1,7,-6,0,-1
1615922483537169,-1,1,7,4,-4,9,0,-1
1615922483537169,-2,0,-2,0,-9,-1,-1,-1
1615922483544150,-1,-5,-11,-11,-6,5,2,-2
1615922483544150,1,6,18,9,-26,-11,-2,2
1615922483552129,-3,-9,-8,-4,-14,2,-1,-3
1615922483552129,1,-3,-13,-5,-14,3,2,0
1615922483561105,1,6,17,12,13,17,1,-2
1615922483561105,-2,-3,-6,0,49,3,-2,-2
1615922483575068,1,-2,-4,-8,-5,-4,-1,0
1615922483575068,-3,-1,2,2,19,-24,-3,-3
1615922483582049,-1,-6,3,-9,-35,-12,-2,-2
1615922483582049,3,4,1,-1,63,4,0,2
1615922483598008,-4,-2,-7,3,-17,10,1,-2
1615922483598008,-2,-2,-2,-6,2,-4,-3,-4
1615922483603991,-1,0,-6,-2,78,4,-1,-1
1615922483603991,-1,-1,12,1,-29,-15,-4,-2
1615922483611970,1,0,-10,-11,-8,-6,0,-1
1615922483611970,-3,-3,4,-1,-12,0,-3,-4
1615922483620945,0,3,13,10,12,-4,-1,1
1615922483620945,0,-4,-11,-18,-45,0,-1,-2
1615922483635905,1,1,7,6,17,-5,1,1
1615922483635905,2,0,-2,-4,-37,14,3,0
1615922483641889,-1,0,4,0,-37,-32,-6,-2
1615922483641889,-2,-5,-5,-2,23,-3,-1,-3
1615922483657846,3,7,17,8,-19,2,0,2
1615922483657846,-4,-4,-7,-2,0,0,1,0
1615922483664827,-1,-4,-14,-12,10,8,0,1
1615922483664827,1,0,8,6,-79,1,2,-2
1615922483680787,-2,-1,-10,-4,44,1,-2,-1
1615922483680787,-2,1,1,1,-53,-5,0,-1
1615922483682780,1,0,7,-1,18,1,2,0
1615922483682780,-2,-3,-5,-4,-6,6,2,-3
1615922483694751,0,-1,2,2,-14,-1,-1,0
1615922483694751,-1,-1,-4,-1,17,-4,-1,-2
1615922483709732,-1,-1,-5,1,38,19,1,-1
1615922483709732,-1,-2,-10,2,47,10,4,0
1615922483717687,-3,-3,18,4,-36,-8,-5,-4
1615922483717687,2,6,10,4,20,-2,1,1
1615922483724668,-2,1,19,10,21,7,0,-2
1615922483724668,-2,1,-6,0,-10,-7,-2,-1
1615922483740631,1,-2,-15,-8,1,-2,-1,-1
1615922483740631,-2,-2,-4,2,47,4,-1,-2
1615922483742624,3,0,-2,-1,31,9,0,1
1615922483742624,-3,-3,0,-4,-26,3,-2,0
1615922483755585,-3,-1,3,-7,13,-10,-3,-2
1615922483755585,1,-3,-9,-4,-8,2,2,1
1615922483761570,1,3,0,1,-24,-7,-6,1
1615922483761570,-3,-2,0,-8,30,-27,-6,-2
1615922483777527,0,-5,-27,-1,-3,11,3,-1
1615922483777527,1,4,16,1,22,0,-2,-1
1615922483784508,-1,-1,11,4,-72,-7,0,-2
1615922483784508,0,-2,-8,-1,3,6,-1,1
1615922483800550,-2,-4,-6,-3,29,4,1,0
1615922483800550,-2,-2,-8,-3,7,-3,-2,-2
1615922483802522,0,-1,5,-1,-73,-14,-1,0
1615922483802522,0,4,12,-5,-22,-3,-3,-1
1615922483815486,0,0,-1,4,13,-5,-1,0
1615922483815486,-1,-2,-2,7,-18,8,-3,0
1615922483821471,0,1,-14,-16,-7,-11,-1,0
1615922483821471,0,2,0,5,-7,11,2,-1
1615922483837697,-2,-1,6,5,-8,-28,-3,1
1615922483837697,-2,1,9,0,14,15,0,-2
1615922483844780,0,-1,-13,-2,51,5,-1,-2
1615922483844780,-2,0,5,6,-25,10,1,-1
1615922483860636,0,3,11,-3,-11,3,0,-2
1615922483860636,-2,-6,-15,-8,-12,-9,-2,-3
1615922483862655,-2,-4,8,5,42,-7,-3,0
1615922483862655,-1,0,-5,-4,-8,3,-2,0
1615922483875595,-2,-1,-5,-5,-17,-1,-1,-1
1615922483875595,-1,-3,5,-5,-10,-4,0,-2
1615922483881579,-3,-4,-10,-1,10,7,1,-2
1615922483881579,0,0,-5,0,32,-6,0,2
1615922483897637,-2,-1,-2,-2,-23,2,-2,-2
1615922483897637,-1,-1,-6,-5,0,3,-2,0
1615922483904543,-2,0,0,-3,-29,-1,-1,0
1615922483904543,0,-2,5,0,-13,-6,-3,-2
1615922483920475,4,4,-9,-3,-35,1,1,4
1615922483920475,-2,-7,0,4,18,-5,1,-2
1615922483922470,-1,3,0,2,9,2,1,-2
1615922483922470,-1,-2,-14,-3,-7,0,-1,-2
1615922483935536,0,-1,-6,3,43,7,-6,-1
1615922483935536,3,3,-10,-5,-84,-16,-2,2
1615922483942492,0,-3,6,-3,-5,8,3,-1
1615922483942492,1,2,2,2,-2,-18,-2,0
1615922483957376,-4,-1,-5,1,66,18,0,-4
1615922483957376,-1,-2,5,7,30,7,2,0
1615922483964358,-3,-4,-8,1,-23,-21,-6,-2
1615922483964358,-1,0,0,-10,40,-2,-2,-1
1615922483980578,-4,-3,6,3,-18,8,3,-1
1615922483980578,0,0,-1,-2,-18,-4,-3,1
1615922483982466,-1,1,2,1,45,6,0,-1
1615922483982466,-2,-7,-13,-2,-2,-5,-2,1
1615922483995529,-1,-1,-1,-9,-18,-13,-2,-1
1615922483995529,-3,-4,3,2,-21,-4,1,-3
1615922484002445,-1,-5,-16,-3,53,9,1,2
1615922484002445,1,-2,-1,4,-2,5,0,-2
1615922484017396,1,3,3,-3,-17,1,0,1
1615922484017396,-2,-2,-12,1,-10,-4,-2,-2
1615922484024378,0,-1,-1,-5,14,1,-2,1
1615922484024378,1,0,3,1,31,14,2,0
1615922484041311,0,-3,2,2,26,3,1,0
1615922484041311,-1,-5,-15,-2,10,-13,-1,-3
1615922484042306,-1,4,18,7,-34,-8,-2,-1
1615922484042306,0,-1,-4,-6,-15,-1,-1,0
1615922484055271,-1,-3,-5,-6,-26,-7,-2,-3
1615922484055271,2,3,16,9,21,6,0,1
1615922484062252,-5,-5,-4,-10,-13,-4,-1,-3
1615922484062252,-1,-1,-5,2,-12,-3,1,-1
1615922484077211,0,4,27,10,-8,0,1,-1
1615922484077211,1,4,-1,-3,-2,-5,-1,3
1615922484084217,-2,-1,-2,1,10,2,0,-1
1615922484084217,-2,0,4,-1,-15,-19,-4,-1
1615922484101148,0,-1,-4,1,26,17,0,-1
1615922484101148,-2,0,-6,-7,20,5,1,1
1615922484102145,-2,1,6,0,6,-1,-2,-2
1615922484102145,-3,-3,-7,-2,-13,3,-2,-1
1615922484115110,0,2,20,2,21,-1,-3,-1
1615922484115110,-1,0,4,2,-26,-1,-1,-2
1615922484122092,0,-3,-12,-8,18,-11,-2,-3
1615922484122092,-2,-5,3,4,4,11,-1,0
1615922484137052,1,-2,0,-6,-38,-14,-4,-1
1615922484137052,0,2,-3,4,13,-6,-1,-4
1615922484144033,2,0,2,2,17,4,2,1
1615922484144033,-3,-4,-12,-2,1,0,-4,-2
1615922484161088,0,1,-5,-6,-62,-33,-3,-2
1615922484161088,0,-2,10,6,-5,-3,-1,0
1615922484161985,-1,-1,-6,-9,38,6,-2,-1
1615922484161985,-1,1,4,1,-57,2,1,-1
1615922484174951,1,1,0,4,5,-5,0,1
1615922484174951,-1,-1,-4,-9,0,3,0,1
1615922484182930,-4,-7,-3,2,5,3,-2,-3
1615922484182930,-1,-1,-1,-6,3,-2,-1,-2
1615922484197937,0,0,-4,3,-30,-3,1,2
1615922484197937,-1,-1,-9,-9,9,0,-1,-1
1615922484204899,-1,-1,7,2,-50,6,0,-2
1615922484204899,-3,-2,-3,3,32,17,0,-2
1615922484220880,-2,-3,-9,-8,-34,3,-1,1
1615922484220880,0,-8,-10,-2,-9,2,-1,-1
1615922484222851,0,4,16,4,-41,-20,0,-1
1615922484222851,1,3,7,3,26,10,-1,2
1615922484234951,-4,-9,-7,-10,9,-5,1,-2
1615922484234951,-2,0,5,3,30,9,0,-1
1615922484243979,-1,-3,-10,-3,21,7,-1,-2
1615922484243979,0,2,2,-1,-31,-9,0,0
1615922484258047,-1,-4,-7,3,5,0,2,-1
1615922484258047,-2,-1,11,1,28,-1,-3,-2
1615922484264031,-1,1,-12,-5,-7,-9,-3,1
1615922484264031,1,-1,-2,0,35,-1,0,0
1615922484281005,2,5,9,7,45,11,-1,0
1615922484281005,-3,0,27,0,-36,-7,1,0
1615922484281983,3,6,-9,-2,-15,2,0,2
1615922484281983,-1,-2,-7,-7,2,-15,-1,-1
1615922484294947,-4,-2,6,5,29,1,-3,-2
1615922484294947,0,0,-14,-9,18,8,-1,2
1615922484303964,-1,-3,8,8,-9,-7,-2,-1
1615922484303964,0,1,6,-5,-43,-9,0,-1
1615922484317919,-2,-2,-8,1,39,14,-2,0
1615922484317919,-2,1,-9,2,26,-4,-2,-2
1615922484324868,1,0,3,-4,7,0,-1,1
1615922484324868,-1,-5,-10,-1,2,2,-2,-1
1615922484340850,-1,0,-4,-5,-1,-17,-8,-4
1615922484340850,-1,3,4,-1,-40,-18,-4,-4
1615922484342820,2,-2,14,10,8,9,1,1
1615922484342820,-2,0,-6,-1,9,-3,-1,-4
1615922484354826,-1,-5,-12,-5,-17,4,0,1
1615922484354826,0,1,14,7,-10,0,-1,1
1615922484363803,-2,1,-7,-4,19,-2,1,-1
1615922484363803,-2,-5,2,2,1,1,0,-2
1615922484377770,-2,-1,-4,-13,-45,-3,1,-1
1615922484377770,-1,-4,-18,-3,41,3,-1,-2
1615922484384747,-3,-6,-13,-4,-14,6,1,-3
1615922484384747,0,3,24,12,13,-6,-3,0
1615922484399707,-2,-6,-11,-10,-2,28,3,-1
1615922484399707,3,-1,-6,-1,-8,-5,4,2
1615922484406692,-1,-2,0,-5,19,-5,-6,-3
1615922484406692,-1,1,-16,-5,-23,3,3,-2
1615922484414672,-1,-1,-4,1,13,6,0,-2
1615922484414672,-4,-2,-1,3,-22,-5,-2,-3
1615922484423643,-2,-2,-13,-9,1,-2,1,0
1615922484423643,1,4,9,0,-31,-2,-1,1
1615922484437630,2,3,2,8,37,-2,1,-2
1615922484437630,-2,-7,-10,-8,-47,0,-2,-3
1615922484444611,-1,-2,-6,-2,17,-7,-2,-3
1615922484444611,-4,-2,1,-1,27,4,-2,-1
1615922484459574,1,1,2,-3,0,-5,-1,0
1615922484459574,2,2,4,1,-22,-11,-2,0
1615922484468524,-3,-3,-8,1,-21,7,0,-4
1615922484468524,1,2,8,-6,-14,-1,0,2
1615922484474507,-4,-2,-2,0,-2,-12,-1,-1
1615922484474507,-1,-3,-11,-7,33,6,-1,-1
1615922484483483,-1,2,3,2,-57,-10,-1,0
1615922484483483,-4,-6,-19,-3,35,-2,-2,-2
1615922484497445,-3,-6,-3,-4,-65,-8,-2,-3
1615922484497445,0,0,-6,-4,4,5,-1,-1
1615922484512406,1,5,35,10,-37,-3,2,0
1615922484512406,-1,-2,-12,-4,-35,0,-5,-3
1615922484520409,1,1,-6,-6,16,-19,0,1
1615922484520409,-4,-7,-5,-3,-1,8,-1,-3
1615922484527365,1,-3,-11,-4,-13,-20,-1,2
1615922484527365,-3,0,10,4,14,4,-1,0
1615922484534347,0,0,2,1,19,4,-2,-2
1615922484534347,2,7,23,6,-8,-7,-2,1
1615922484543322,-3,-3,-3,-1,53,8,1,-3
1615922484543322,0,0,14,5,1,0,-2,-2
1615922484557286,3,1,-2,3,-40,-8,0,3
1615922484557286,-4,-3,4,0,38,-2,-2,-1
1615922484564266,-2,-1,-15,-5,-7,3,-4,0
1615922484564266,-1,-3,11,2,15,-4,-1,-1
1615922484580224,-2,3,3,3,9,7,0,0
1615922484580224,0,-2,-17,-7,-7,1,0,3
1615922484587207,2,5,20,6,-1,0,-1,0
1615922484587207,-1,-7,-15,-5,-1,-18,1,-2
1615922484603163,-2,0,5,2,7,10,-2,-3
1615922484603163,1,-2,-3,-3,-2,-2,0,1
1615922484605158,-2,-6,-22,-3,26,10,0,-1
1615922484605158,1,5,11,-8,-18,5,2,0
1615922484618123,-3,0,16,6,-9,-8,-3,-3
1615922484618123,-1,-2,-9,-2,25,4,0,0
1615922484624108,-1,-3,-1,-1,-26,-3,-1,-1
1615922484624108,1,-1,-11,-4,-6,4,3,3
1615922484640065,-3,-3,-17,-9,3,-6,-1,-4
1615922484640065,2,0,16,9,23,0,-1,2
1615922484647046,-1,1,-11,-8,-30,-24,-2,0
1615922484647046,-3,-2,-6,-3,-34,-23,-5,-2
1615922484663005,0,-2,-2,1,-7,-5,-2,-1
1615922484663005,-3,-1,2,1,1,0,1,-2
1615922484664999,3,-1,18,4,0,5,0,0
1615922484664999,-1,-1,-4,-1,-1,-5,-1,0
1615922484677963,0,0,-1,-2,-68,6,0,0
1615922484677963,-1,1,3,-1,-2,0,-1,-1
1615922484684945,-2,-3,-5,-2,14,5,-2,-2
1615922484684945,-2,0,2,7,4,3,-3,-3
1615922484699905,-2,-4,-6,-4,-9,-2,1,0
1615922484699905,-1,-1,-10,-7,10,4,3,0
1615922484706886,1,1,14,3,-35,-6,2,0
1615922484706886,-1,-3,-12,0,23,-1,-4,0
1615922484723841,-1,-1,-7,-4,-12,4,-3,-3
1615922484723841,3,3,0,9,12,-25,-3,-2
1615922484724838,0,-1,20,2,-11,-1,-2,0
1615922484724838,1,-1,-14,-6,-8,-5,1,-1
1615922484745802,-4,-3,5,2,0,8,-2,-2
1615922484745802,-2,1,-3,-4,25,12,1,-1
1615922484747780,-3,-5,-22,-3,0,5,0,-1
1615922484747780,0,2,9,5,-19,-2,-3,-2
1615922484759745,-1,-1,-8,-13,-3,-5,-2,-2
1615922484759745,0,0,1,0,-8,0,-3,-2
1615922484766727,1,4,19,1,-65,7,0,1
1615922484766727,0,-1,14,3,55,12,1,-2
1615922484783708,1,2,-7,1,20,-5,1,2
1615922484783708,-2,-4,-7,-4,-27,-4,-3,-4
1615922484784705,-6,-8,-20,-4,45,17,-2,-2
1615922484784705,-1,4,7,1,-8,-5,-3,-1
1615922484797690,2,2,25,10,-1,-5,-1,2
1615922484797690,0,0,5,3,44,4,-1,-1
1615922484804676,0,-1,-16,-9,-9,2,-1,-2
1615922484804676,-3,-2,-7,-4,-58,-8,0,1
1615922484820609,-3,0,-3,3,57,6,1,-3
1615922484820609,-3,-3,-3,-3,-33,-5,1,-2
1615922484826623,-1,2,12,2,-3,-2,-2,-1
1615922484826623,1,-1,-18,-9,7,-25,-2,-1
1615922484843548,2,1,24,12,-9,1,2,2
1615922484843548,-3,-5,-3,-8,-35,1,-1,-1
1615922484844550,-2,-3,4,7,71,-1,-1,-3
1615922484844550,1,-2,-8,-10,-5,5,0,-2
1615922484857511,0,-2,-12,-7,22,1,-3,0
1615922484857511,-1,3,5,6,23,-3,-3,-1
1615922484872502,-1,-6,-10,-11,-15,-5,-1,-2
1615922484872502,-2,-1,12,9,24,15,3,0
1615922484880221,-2,-5,-13,-14,-54,5,-4,1
1615922484880221,-2,-1,8,2,-32,1,-1,0
1615922484887198,-1,1,-8,-6,-4,-9,-2,-1
1615922484887198,-5,-7,-13,0,-2,10,-2,-2
1615922484903176,1,1,7,3,-16,9,3,0
1615922484903176,2,0,-4,-4,-46,-23,0,0
1615922484905171,0,2,5,5,23,6,2,0
1615922484905171,0,-1,-5,-7,-11,7,-1,0
1615922484918137,-2,-3,-12,-1,43,7,-1,-2
1615922484918137,-1,-2,7,4,-8,9,1,0
1615922484924121,-4,-5,-7,-2,-34,-8,0,0
1615922484924121,1,2,-4,-1,49,-1,0,1
1615922484941132,-2,-2,-9,-4,7,-11,-2,-3
1615922484941132,0,3,0,2,2,6,3,1
1615922484947115,-3,-2,-5,-8,-27,-16,-2,-4
1615922484947115,-3,-3,-10,0,25,5,-3,-1
1615922484963099,-2,-1,7,6,-7,-1,0,0
1615922484963099,-3,1,-8,-6,23,-16,-4,-1
1615922484963099,-1,-2,2,-4,-35,-2,-4,-1
1615922484963099,2,6,12,2,14,3,1,1
1615922484978032,-3,-2,-1,0,19,-11,-5,-7
1615922484978032,1,1,5,1,-27,8,1,2
1615922484984015,0,-2,-5,1,27,-1,0,-1
1615922484984015,0,0,2,0,-18,-1,0,-3
1615922485000971,-1,-1,9,0,17,2,-1,1
1615922485000971,-4,-7,4,1,-11,2,-1,-1
1615922485006954,1,0,-17,-4,12,1,0,2
1615922485006954,0,-1,7,3,-17,-2,1,-1
1615922485022912,2,-1,11,1,-7,-2,0,-1
1615922485022912,-2,-3,-11,-5,-15,-4,-2,-1
1615922485023909,0,2,3,4,27,3,-1,0
1615922485023909,-2,1,14,2,23,-6,-3,-2
1615922485038869,0,-6,-9,-3,-4,-6,-2,-1
1615922485038869,3,7,4,-3,5,-22,-1,0
1615922485044853,0,-3,-3,-1,8,2,0,-1
1615922485044853,-1,-1,9,-2,-59,5,-1,-3
1615922485060810,0,1,5,4,51,4,-1,1
1615922485060810,-2,-3,-1,4,31,15,-3,-2
1615922485074773,0,5,10,1,3,0,-1,-2
1615922485074773,-2,-2,-5,-3,-3,-5,-2,-2
1615922485082481,-1,-2,-6,-4,11,-3,1,2
1615922485082481,0,-1,10,5,29,8,0,-1
1615922485083478,-2,-5,-10,-3,11,5,-2,-2
1615922485083478,-1,-7,-4,6,13,10,0,-1
1615922485098439,0,0,-18,-7,-7,-18,-2,-1
1615922485098439,1,4,4,-6,-33,-5,-1,-2
1615922485104422,1,-2,5,6,-12,3,1,2
1615922485104422,2,2,-2,-2,-6,4,0,0
1615922485121378,-4,-6,2,0,34,12,1,-3
1615922485121378,1,-2,-5,-4,23,17,0,0
1615922485127363,1,1,0,1,-9,-10,0,3
1615922485127363,-3,-4,-7,-1,26,2,-2,0
1615922485142323,0,0,4,0,-50,1,-2,-2
1615922485142323,-2,-4,-12,-3,-37,-5,0,-1
1615922485143318,-2,1,-2,-5,34,10,-1,-1
1615922485143318,-2,-4,3,8,-15,-2,2,-1
1615922485165260,-3,3,1,0,-15,16,1,-2
1615922485165260,-2,-2,-17,-7,-12,-17,-3,-4
1615922485172267,0,0,6,-1,-34,-15,-4,-1
1615922485172267,2,0,-9,-7,-1,-8,-4,0
1615922485180787,-2,1,6,1,-17,-1,-1,-2
1615922485180787,-2,-3,-3,1,-65,-3,-2,-2
1615922485186771,-3,-6,-8,-6,28,15,1,-2
1615922485186771,0,2,-2,-7,-4,-5,0,0
1615922485202728,0,5,11,7,8,-9,-3,0
1615922485202728,-2,-5,0,-1,18,0,-1,0
1615922485203726,2,4,6,2,33,-4,-1,-1
1615922485203726,-4,-7,-4,-4,-41,5,-1,-2
1615922485225714,-2,-1,-12,-5,31,5,-1,-2
1615922485225714,0,0,3,-3,57,2,3,-1
1615922485225714,-2,-2,4,14,13,-21,-2,-2
1615922485225714,1,8,6,-8,7,-8,-2,-1
1615922485240650,2,-4,-13,-2,-8,1,2,3
1615922485240650,-2,-4,29,-3,1,4,-2,0
1615922485246633,-1,-3,-19,1,8,8,4,1
1615922485246633,0,-1,7,-3,-15,-5,0,-2
1615922485262591,0,1,-12,-6,-32,-17,-3,-1
1615922485262591,-2,-3,-13,2,44,3,-2,0
1615922485263567,1,0,14,6,-30,-8,-1,-2
1615922485263567,-2,-2,-11,0,26,3,0,0
1615922485285065,2,0,-2,-6,-32,-2,-1,-3
1615922485285065,0,-3,-11,-7,9,2,2,0
1615922485286061,-2,-1,-3,-11,11,16,-2,-5
1615922485286061,-1,1,2,4,0,-16,-4,-2
1615922485301022,0,-4,-7,-3,-19,-3,-2,-1
1615922485301022,-2,-1,3,3,-33,-11,-4,-2
1615922485307006,-1,3,-4,-8,-32,3,1,1
1615922485307006,-6,-6,1,0,-1,5,0,-1
1615922485322962,0,3,25,5,5,2,0,0
1615922485322962,1,0,-19,-8,-74,-6,-2,0
1615922485322962,0,-1,15,4,-18,-10,0,3
1615922485322962,-2,-2,-4,-2,30,1,-1,-2
1615922485344908,0,1,1,1,-3,-2,-2,-1
1615922485344908,3,4,13,12,-14,1,0,1
1615922485345930,0,0,-1,-4,36,9,-6,-1
1615922485345930,0,0,-3,-8,-5,-10,0,1
1615922485360861,-2,-2,-10,-6,8,13,0,-1
1615922485360861,-3,-3,-2,-3,14,-1,-3,-3
1615922485374824,-3,-4,-15,-8,-17,-7,-1,-2
1615922485374824,1,-1,1,2,8,9,1,1
1615922485381929,-4,1,3,1,4,3,-3,-1
1615922485381929,-2,-6,-9,-5,6,4,-1,-2
1615922485389908,-1,2,9,3,-22,-8,0,-2
1615922485389908,-1,-7,-15,-6,-13,3,-2,-4
1615922485404868,2,1,-1,5,-21,-12,-1,1
1615922485404868,0,1,0,2,-5,-8,0,0
1615922485405864,0,-5,-18,-8,-16,-9,1,2
1615922485405864,1,5,38,18,29,2,0,0
1615922485420827,-1,-5,-10,-10,21,-8,-5,-2
1615922485420827,1,-2,-2,0,40,13,0,-2
1615922485426809,-1,-4,-7,-4,-28,-6,-1,-2
1615922485426809,2,4,4,1,-30,-5,-1,0
1615922485441773,-2,-3,0,3,39,-1,-1,-1
1615922485441773,-2,1,2,-4,-44,7,-2,-2
1615922485449748,1,-4,9,-1,26,2,0,0
1615922485449748,-2,0,-12,-4,-17,-2,-2,-2
1615922485464708,-1,1,7,6,-20,-2,1,0
1615922485464708,-2,-3,-12,-4,0,-5,-1,-1
1615922485465705,-1,-2,-4,1,29,-1,0,1
1615922485465705,0,0,-2,-2,14,7,0,2
1615922485480686,-2,-2,-2,4,-15,3,-1,0
1615922485480686,-4,-4,-12,-4,38,-3,0,-1
1615922485486651,0,4,3,-1,-89,-20,-2,-2
1615922485486651,-2,-3,-4,4,-3,-23,-4,-1
1615922485501636,1,-1,-8,-9,-27,-11,0,1
1615922485501636,0,3,27,15,40,11,3,1
1615922485509613,-1,-4,-9,-9,-14,-1,-4,-3
1615922485509613,-1,0,7,4,-1,6,0,-1
1615922485525572,-1,-2,9,-5,-8,2,1,-2
1615922485525572,-4,-4,-10,-3,1,-7,-1,-3
1615922485525572,0,7,8,6,25,6,1,0
1615922485525572,1,-3,-2,-7,4,13,0,2
1615922485540504,-4,-8,-17,2,88,8,-3,-3
1615922485540504,1,4,29,0,-30,-4,-1,0
1615922485547486,-2,-2,-1,4,43,2,-2,-2
1615922485547486,-1,-2,-12,-3,2,19,1,-1
1615922485562451,3,4,3,2,40,-13,-1,0
1615922485562451,-2,-2,0,-6,-5,0,-3,-3
1615922485577410,1,0,-2,2,-6,1,0,0
1615922485577410,-2,-3,-10,-4,-26,2,-2,-2
1615922485585385,-1,0,-10,-2,20,7,1,-1
1615922485585385,-1,4,16,8,24,-8,-2,-1
1615922485586383,1,0,3,0,-23,-6,-1,0
1615922485586383,-3,-1,-10,-6,1,-6,-1,-1
1615922485601369,0,-4,-6,1,-32,-5,0,1
1615922485601369,2,2,-15,-2,12,13,0,1
1615922485607326,-2,-1,10,-1,18,0,0,0
1615922485607326,0,1,15,8,13,-7,-2,-3
1615922485630287,-1,-2,-7,-7,20,-28,-5,-2
1615922485630287,0,-2,3,3,12,6,0,-1
1615922485631285,3,-1,-11,3,-45,5,0,3
1615922485631285,-3,0,-5,-2,1,0,-1,1
1615922485645251,0,1,4,2,-20,10,2,1
1615922485645251,-1,-8,-4,-7,-23,-13,-2,1
1615922485652257,-4,-3,-15,-9,-1,-11,-4,-4
1615922485652257,-1,-2,10,5,-4,1,1,-1
1615922485661243,0,0,-1,-4,-21,7,2,-1
1615922485661243,0,2,-9,-4,-36,-2,2,2
1615922485667192,-4,-1,4,5,20,9,-1,-3
1615922485667192,-4,-3,1,-6,-8,-4,-3,-2
1615922485682149,0,1,1,0,-46,-4,-1,-1
1615922485682149,0,-1,-10,-1,5,-21,-3,-1
1615922485689130,0,2,14,-4,16,2,-3,-3
1615922485689130,1,-1,-10,-6,-23,-10,-2,-2
1615922485705091,-1,1,26,5,-34,-3,-2,0
1615922485705091,-3,-7,-14,-4,-37,2,-2,-2
1615922485706084,-1,-2,-4,-1,41,10,3,0
1615922485706084,-3,2,3,-4,37,-8,-1,0
1615922485721044,-1,-2,0,-7,16,8,0,0
1615922485721044,-1,-3,-9,3,-17,2,3,0
1615922485727032,-4,2,-3,-5,27,8,0,-2
1615922485727032,0,-3,-2,1,35,3,0,-2
1615922485741992,-1,-3,-10,-2,47,12,1,-2
1615922485741992,1,5,13,0,-30,-10,-3,-2
1615922485749966,-1,-6,-11,-3,14,-9,-4,-1
1615922485749966,2,0,-10,2,16,2,1,0
1615922485764927,-5,-6,1,1,-6,14,-1,-2
1615922485764927,-4,-5,-15,-5,10,14,0,-3
1615922485765925,-1,0,1,-1,-4,-2,-1,-1
1615922485765925,-3,-3,17,5,15,-9,-4,-2
1615922485780887,0,-4,-11,-4,-11,1,-1,-2
1615922485780887,0,1,0,1,35,6,-5,-2
1615922485786896,-1,-3,-3,-8,-40,-7,1,-1
1615922485786896,-1,0,-12,-5,-24,-1,0,0
1615922485801859,1,4,5,1,1,-1,2,0
1615922485801859,-4,-3,-6,1,71,6,-1,-2
1615922485809831,-2,0,0,-6,59,18,4,-1
1615922485809831,-2,-5,-13,2,14,-15,-2,-1
1615922485824778,0,0,9,-3,-22,-4,1,1
1615922485824778,1,6,16,8,-23,-5,-1,0
1615922485825764,-2,-4,5,0,-21,7,0,-2
1615922485825764,1,-2,-5,-1,-9,-4,0,0
1615922485840741,-5,-5,-15,-1,3,-12,-3,-3
1615922485840741,1,2,21,-2,14,22,-1,0
1615922485846712,-2,-2,-4,3,-40,-9,-3,-2
1615922485846712,2,2,5,2,3,10,1,0
1615922485870645,-3,0,-1,-3,-31,-9,-3,-4
1615922485870645,1,0,-7,-3,-14,11,4,1
1615922485871693,-2,-3,1,-1,20,-9,-4,-3
1615922485871693,-2,-1,-12,-4,-87,4,-1,-3
1615922485884730,1,0,5,-2,-4,-3,0,-1
1615922485884730,-4,-8,-11,-2,29,6,1,-1
1615922485885728,2,1,0,-2,-24,5,1,1
1615922485885728,-1,-2,-5,-2,-3,-7,-4,-1
1615922485900688,0,0,-4,-4,31,-1,0,-2
1615922485900688,0,-2,9,-2,-87,-18,-3,-1
1615922485906672,2,-2,-9,2,22,2,0,-1
1615922485906672,-2,-1,8,-1,20,5,1,1
1615922485921632,0,-1,-6,3,15,8,1,1
1615922485921632,0,2,-4,0,20,-25,-2,-1
1615922485929614,0,-1,-5,-5,-40,-4,-2,-2
1615922485929614,-1,-4,3,4,12,7,-1,-1
1615922485945569,1,3,33,9,-28,-10,-3,0
1615922485945569,-2,2,-12,-15,10,5,2,-1
1615922485945569,-1,-3,-6,-1,-27,-9,-1,1
1615922485945569,-2,0,6,6,34,10,0,-3
1615922485960804,1,-2,-10,-14,-22,-14,1,1
1615922485960804,-1,2,6,9,-27,-8,-2,-1
1615922485966772,2,4,7,1,39,-6,-3,1
1615922485966772,-1,-3,-7,-6,2,8,-2,-3
1615922485981732,-2,-3,-15,-6,76,2,1,1
1615922485981732,2,4,13,5,45,-5,-3,-1
1615922485989710,1,0,11,8,1,-14,0,1
1615922485989710,1,0,4,4,8,-3,-2,-1
1615922486005715,-2,0,1,1,-23,6,-1,-4
1615922486005715,-1,-8,-15,-8,8,4,2,-1
1615922486005715,-4,0,9,5,21,14,0,-3
1615922486005715,-1,-1,-7,-10,-20,-10,1,0
1615922486020628,0,0,5,4,-7,5,2,-1
1615922486020628,-2,-1,-8,-5,-2,-8,-3,-2
1615922486026611,-1,2,-7,3,-6,-1,-1,-1
1615922486026611,-3,-4,0,-5,-64,-14,0,0
1615922486041701,-1,0,-12,-2,4,-7,-5,-2
1615922486041701,-2,1,12,5,44,23,4,1
1615922486049677,0,-1,-6,-3,0,-8,0,-1
1615922486049677,-3,-4,0,-6,-74,-8,1,-3
1615922486065635,-1,4,-3,1,5,-2,-1,-1
1615922486065635,0,-5,-12,2,-48,2,-2,-2
1615922486065635,0,-2,-2,4,19,-2,-2,0
1615922486065635,1,4,18,-3,23,14,2,-2
1615922486080594,0,-4,-9,4,-13,5,1,2
1615922486080594,-2,-1,-15,-9,9,-7,0,-3
1615922486086578,-2,-3,0,-2,-15,4,1,0
1615922486086578,0,-1,-9,-3,4,-4,0,-1
1615922486101538,-2,-6,1,1,-31,-2,-4,-1
1615922486101538,1,4,17,2,-11,-12,-1,1
1615922486109829,0,-3,-11,-7,-16,22,3,-2
1615922486109829,0,5,-4,-1,38,-17,-3,-1
1615922486132748,-1,0,5,2,1,-2,-1,-1
1615922486132748,2,-2,6,10,-4,3,1,1
1615922486133743,2,4,-4,-8,-10,-2,-3,0
1615922486133743,-5,-8,-16,1,20,3,1,-3
1615922486140758,-1,3,9,-2,61,4,3,2
1615922486140758,-2,-5,-1,-7,7,-9,-1,-1
1615922486146733,-1,-2,12,5,16,-10,-3,-3
1615922486146733,3,2,-3,2,-3,2,0,3
1615922486161696,-2,-5,-17,-5,11,2,-2,-4
1615922486161696,-4,0,10,-1,6,1,-2,-3
1615922486169646,-3,2,0,-1,6,1,0,-1
1615922486169646,-2,-2,-3,-4,-2,2,-1,-2
1615922486185631,-2,-3,-6,-4,7,8,0,-2
1615922486185631,-1,0,-1,0,-11,-3,-4,-1
1615922486185631,0,-3,4,6,-5,3,1,5
1615922486185631,-1,4,14,0,-11,-1,0,-4
1615922486200564,-1,-6,-13,5,20,4,-1,-1
1615922486200564,2,1,9,-6,7,-2,-2,-1
1615922486206567,-2,-4,-25,-13,10,-18,-1,-1
1615922486206567,1,-1,32,16,13,7,-3,-2
1615922486221533,2,5,15,-2,-45,-4,0,1
1615922486221533,-3,-4,-9,1,5,-4,-2,-2
1615922486229567,-2,-4,0,-8,-97,-6,-1,-2
1615922486229567,-1,-1,-6,-1,-11,3,-2,-2
1615922486245522,-2,-2,-6,0,-13,2,-4,-2
1615922486245522,0,-1,-3,1,15,9,1,1
1615922486245522,-1,0,-7,5,12,-1,0,-1
1615922486245522,-2,0,-4,-3,-17,-4,-1,-2
1615922486261460,-3,-2,5,2,0,0,1,-1
1615922486261460,0,-2,-17,-8,0,3,-2,-3
1615922486267443,1,0,-5,-2,61,13,0,0
1615922486267443,0,2,40,8,-36,-7,0,-1
1615922486282404,-3,4,-4,-9,-21,-8,-4,-3
1615922486282404,0,-4,-9,-4,-55,-10,-2,-1
1615922486289384,-1,1,12,1,-1,2,1,-2
1615922486289384,1,0,-11,-8,-11,3,0,1
1615922486304367,0,-4,-3,-2,76,4,-4,-3
1615922486304367,0,3,1,5,-4,-14,0,0
1615922486312372,-2,-3,-5,-6,-16,-4,-1,-1
1615922486312372,-1,-2,-21,-3,19,7,0,1
1615922486321323,1,3,14,8,-4,-6,-1,1
1615922486321323,-1,0,-1,-3,-4,2,0,1
1615922486327323,1,5,5,7,56,5,-3,-1
1615922486327323,-4,-4,-11,0,77,6,-1,-1
1615922486343286,-2,-2,7,-8,-70,2,-1,-2
1615922486343286,-1,-1,-9,-8,-29,-4,-2,-1
1615922486349271,-6,-7,-2,10,-7,-5,-2,-4
1615922486349271,2,3,7,5,27,0,3,2
1615922486366379,1,-3,-13,-9,-3,-1,-3,0
1615922486366379,-4,-4,0,-4,-32,10,-1,-3
1615922486372334,0,3,21,1,-2,-23,-1,-2
1615922486372334,3,-2,-15,-2,2,-3,-1,1
1615922486381311,-2,0,13,2,-20,-5,-1,-2
1615922486381311,-1,-5,-14,-3,-6,-8,-1,-2
1615922486387295,-1,-2,-3,3,21,9,0,1
1615922486387295,-3,-2,3,-2,-18,1,-2,-1
1615922486418473,-3,-2,16,5,-16,-4,2,-1
1615922486418473,-2,-1,-2,0,56,0,-4,-1
1615922486419471,-2,-2,-12,-6,-59,-1,-1,-1
1615922486419471,1,6,14,2,-43,-3,-3,-1
1615922486424476,-2,-4,-16,-7,34,5,-1,-3
1615922486424476,-1,0,4,5,3,3,-1,1
1615922486432436,-3,-4,-7,-2,16,6,1,-1
1615922486432436,-6,-11,-35,-26,-41,-30,-4,-3
1615922486447396,5,14,39,28,-4,2,4,3
1615922486447396,1,0,12,-3,-19,3,-2,-2
1615922486448393,2,1,-9,-4,2,11,0,-1
1615922486448393,0,-2,-11,-4,-49,11,1,1
1615922486463353,-3,-6,-9,-6,8,-16,-6,-3
1615922486463353,-3,-4,-8,-3,-27,-13,2,-1
1615922486469361,3,7,20,1,-93,-4,1,3
1615922486469361,0,-2,-14,-5,31,2,1,-1
1615922486486319,-2,1,8,1,-5,-1,-4,-2
1615922486486319,-1,0,-3,-3,25,11,1,0
1615922486492311,-2,-3,9,2,6,-7,-3,-2
1615922486492311,-1,-3,-6,0,21,9,1,-1
1615922486508234,2,5,9,-3,-43,-5,-3,-1
1615922486508234,0,-4,-10,-4,46,-2,2,2
1615922486508234,1,2,6,3,7,4,1,-1
1615922486508234,-2,-1,8,3,32,-4,-1,-2
1615922486523192,-1,1,9,4,8,3,1,-1
1615922486523192,1,0,-2,-5,23,-1,-2,-1
1615922486529181,-2,-4,-8,-1,32,5,-2,-2
1615922486529181,-1,-1,2,2,21,-2,-5,-4
1615922486544237,-1,-4,-21,-9,-15,-3,1,2
1615922486544237,-2,1,-1,0,-6,3,-3,-2
1615922486552116,-3,-4,-7,5,54,5,-3,-1
1615922486552116,1,3,9,3,-52,-12,0,-1
1615922486568073,0,-2,-23,-5,3,-4,-2,-1
1615922486568073,0,0,4,3,12,4,1,0
1615922486568073,-2,-3,-6,-8,3,-10,0,0
1615922486568073,-1,0,-3,-1,-22,-4,0,-2
1615922486584031,-4,-5,2,-2,-1,-6,-1,-1
1615922486584031,-3,-2,-7,-1,-45,-8,0,-2
1615922486590015,-1,-1,7,2,70,3,0,1
1615922486590015,-3,-5,-4,-6,-12,5,-4,-2
1615922486604974,1,1,-9,-1,17,-2,3,0
1615922486604974,0,-3,3,4,18,-8,-3,-2
1615922486611956,1,-1,-11,-4,-27,-7,0,0
1615922486611956,-2,1,25,8,37,11,0,-1
1615922486628048,-1,-6,-21,-5,4,-29,-4,-3
1615922486628048,1,4,19,12,16,0,0,-1
1615922486629048,-1,2,-1,-11,-16,2,-3,-1
1615922486629048,0,-6,-14,-7,16,1,0,0
1615922486644097,-1,1,7,-4,-12,4,3,1
1615922486644097,-5,-6,-24,-9,-7,0,0,-1
1615922486649992,0,8,53,16,-7,-16,-3,0
1615922486649992,1,-1,-6,-4,-28,-3,-1,1
1615922486664951,-2,-5,-11,2,27,0,-1,-2
1615922486664951,0,1,-12,-8,-52,-2,-3,-1
1615922486672930,-1,-3,0,2,2,13,-2,-2
1615922486672930,-2,1,2,-5,-74,-9,-1,-1
1615922486687890,0,-2,-2,6,-11,2,0,-2
1615922486687890,-1,-2,-11,-4,41,10,-1,-2
1615922486688888,0,-4,-9,1,-12,-4,0,1
1615922486688888,1,7,6,3,21,-7,-3,0
1615922486703885,-4,-5,-11,-6,0,9,-5,-3
1615922486703885,0,2,11,4,-16,-2,2,-2
1615922486710070,-1,-6,-27,-10,-40,-6,-2,0
1615922486710070,2,8,27,16,72,13,1,1
1615922486724930,1,-3,-20,-13,-14,6,-3,-3
1615922486724930,1,3,23,4,-6,0,1,2
1615922486731911,-3,-2,-7,3,6,8,3,-3
1615922486731911,0,-6,-13,-7,-5,-15,-1,0
1615922486747869,-2,0,-6,4,7,-2,-2,1
1615922486747869,-1,2,11,2,7,-3,-1,0
1615922486748904,-1,-3,-17,-13,14,-1,1,-1
1615922486748904,-1,-1,22,1,7,25,1,-2
1615922486763840,-1,0,5,-2,6,-9,0,-2
1615922486763840,3,-2,-11,0,-1,7,0,1
1615922486769829,-3,-2,-7,-3,-9,-1,-4,-2
1615922486769829,0,5,1,-1,25,-12,0,1
1615922486784771,-2,-4,-4,-4,-39,4,1,-1
1615922486784771,-3,0,18,8,40,-3,0,-2
1615922486791752,1,0,0,1,-22,4,-3,0
1615922486791752,-1,-2,-12,-4,-11,-10,1,-2
1615922486815687,-1,-4,-5,-6,-37,7,0,0
1615922486815687,0,-1,0,-1,-5,-14,-5,-2
1615922486815687,-3,5,2,-1,0,-7,-4,-2
1615922486815687,-3,-4,-12,1,60,21,-1,-2
1615922486823693,0,4,8,6,64,-11,-1,1
1615922486823693,-1,-5,-8,-8,-16,4,2,1
1615922486829649,-2,-4,-6,-4,10,2,4,-2
1615922486829649,1,-2,-2,-2,-27,-2,-4,-2
1615922486844637,-2,-2,-3,-4,15,1,0,-3
1615922486844637,1,2,6,4,51,-1,0,-1
1615922486851591,-1,0,9,2,-17,-19,-1,-1
1615922486851591,1,-3,-24,-9,23,5,2,3
1615922486867572,2,-1,6,1,-12,6,1,1
1615922486867572,0,0,3,0,-29,-8,-2,-2
1615922486868546,-2,-4,5,0,-19,-3,0,-1
1615922486868546,1,0,-6,4,-63,-11,-3,-2
1615922486883507,-1,2,20,4,68,20,1,0
1615922486883507,-3,-5,-21,-7,30,-6,1,-1
1615922486889516,-1,-2,5,-3,3,8,-2,-4
1615922486889516,1,3,2,6,-3,-3,5,2
1615922486904475,-1,0,-1,-4,-60,0,-1,-2
1615922486904475,-2,-3,-7,-2,-31,9,-1,-2
1615922486912453,-1,0,-1,4,42,-1,1,-1
1615922486912453,-3,-2,0,-2,-10,1,-1,-2
1615922486927410,2,3,2,-3,-12,-9,0,2
1615922486927410,-1,-2,-6,-2,2,-4,0,-2
1615922486928386,2,3,-3,3,16,12,0,2
1615922486928386,-1,-2,-2,-6,-12,-5,-1,-2
1615922486943347,0,0,-3,2,36,11,3,0
1615922486943347,0,-6,7,-1,-56,-8,-3,-1
1615922486949330,1,4,-1,1,19,-12,-1,1
1615922486949330,-4,-2,-9,-4,8,-8,-3,-5
1615922486964290,-1,-6,-7,-3,-21,-4,-1,-1
1615922486964290,-1,1,-13,-6,50,16,-3,-2
1615922486972268,-3,-4,7,3,-8,3,-1,-2
1615922486972268,-2,-4,0,4,28,-2,-2,-3
1615922486987258,-1,2,10,1,-4,-10,-2,-2
1615922486987258,-2,-2,5,-1,-44,1,-1,-1
1615922486988231,-1,-5,-14,-5,-1,-2,-2,0
1615922486988231,-2,-2,-20,-6,-3,-6,-3,-3
1615922487003215,3,10,47,10,7,8,-1,1
1615922487003215,1,0,2,8,19,1,0,0
1615922487009312,0,-6,-11,-8,-19,-7,-3,-1
1615922487009312,-3,-6,3,-4,12,14,0,-3
1615922487024163,0,1,-11,2,-7,-21,-1,0
1615922487024163,0,3,3,-3,27,-11,-1,1
1615922487032142,2,-4,-15,1,-4,3,0,2
1615922487032142,0,1,7,3,50,9,0,2
1615922487048099,1,-3,-18,-8,7,-8,-2,-2
1615922487048099,-3,-1,3,7,-28,6,-1,-3
1615922487048099,-2,-1,-10,-8,-35,-12,0,-3
1615922487048099,2,4,-1,-3,6,-19,-3,1
1615922487064056,0,-2,-5,0,-5,13,0,0
1615922487064056,3,1,13,6,-7,-7,0,0
1615922487069069,0,-1,-6,-2,13,20,0,-3
1615922487069069,0,-2,6,3,-2,-1,1,3
1615922487085000,-2,1,8,-1,-73,-16,-2,-4
1615922487085000,-1,-5,-25,-14,-49,-13,-2,-1
1615922487091987,2,7,37,12,54,13,2,-1
1615922487091987,-1,-1,3,0,-50,-9,-7,-2
1615922487107939,-2,-4,-15,-3,-5,4,0,-1
1615922487107939,-2,-1,-2,-5,28,3,-1,-2
1615922487108965,-1,-2,-9,0,2,0,0,-2
1615922487108965,0,1,25,-1,-27,7,4,2
1615922487123896,-1,-1,-8,-7,6,-5,-3,1
1615922487123896,-1,-3,10,3,-6,2,1,-1
1615922487130079,-1,3,-5,-9,-1,3,-2,0
1615922487130079,1,2,13,3,-25,-24,1,-1
1615922487144998,-2,-6,-14,0,14,8,-1,-3
1615922487144998,-2,1,-6,-7,6,9,2,-1
1615922487151978,0,0,5,-4,-31,-1,1,0
1615922487151978,-1,-4,-8,3,43,18,0,-2
1615922487168105,-3,-1,-6,1,25,-6,-4,-3
1615922487168105,1,2,5,6,-33,0,-2,1
1615922487168105,-2,-3,-9,-6,7,-7,0,-1
1615922487168105,-2,-2,-9,0,20,0,-2,-3
1615922487183065,1,3,16,1,-27,1,2,1
1615922487183065,0,-2,1,0,61,11,3,0
1615922487189073,-2,-3,-2,-3,-50,-7,-3,-2
1615922487189073,-2,1,-1,-1,32,16,-1,-2
1615922487205006,-2,-2,-14,-9,6,-8,0,-1
1615922487205006,-2,-1,-2,10,-3,-4,-1,-1
1615922487211987,2,7,28,9,8,0,2,1
1615922487211987,-2,-3,-15,-4,-25,-17,-4,-3
1615922487226947,-2,-3,-3,0,33,9,-1,-1
1615922487226947,1,4,7,1,13,-1,-1,-1
1615922487234926,-4,-3,-5,2,-5,2,-2,-3
1615922487234926,-4,-6,-10,-1,-36,-10,-2,-1
1615922487249910,1,6,17,7,36,-1,-2,1
1615922487249910,0,0,6,-9,-22,-7,0,-1
1615922487250883,-2,-3,-10,-6,-31,-5,1,0
1615922487250883,3,0,6,-2,57,6,3,2
1615922487264871,-1,-4,-13,-6,1,15,1,-1
1615922487264871,-2,-3,10,8,-19,-8,-3,-3
1615922487271828,2,4,16,-5,0,-8,-1,3
1615922487271828,-2,-1,-16,2,-15,11,2,0
1615922487286787,1,1,18,2,-33,0,-5,-3
1615922487286787,0,-1,-5,-5,-19,-3,0,-2
1615922487294867,-1,-5,-17,-2,30,4,0,-2
1615922487294867,-3,0,4,-7,-27,3,-3,-2
1615922487303743,-1,0,-8,0,-12,-4,1,3
1615922487303743,1,4,-6,-3,-12,9,3,2
1615922487309726,-4,-3,-2,3,18,-4,-3,-2
1615922487309726,1,-1,-6,-6,16,3,-1,1
1615922487324706,-2,-3,2,1,-13,-1,-3,-3
1615922487324706,0,-1,6,-3,58,-21,-2,-2
1615922487331667,1,0,-19,-3,-74,-8,-1,0
1615922487331667,-1,0,2,-8,39,9,2,-1
1615922487346627,-2,-1,1,0,-77,-12,1,0
1615922487346627,-4,-5,-3,-2,1,14,-7,-3
1615922487354605,0,-1,-1,0,50,2,1,0
1615922487354605,-1,-1,13,1,-29,-20,-4,-3
1615922487372558,-2,-4,-12,-7,5,-3,-1,-2
1615922487372558,-1,-1,-9,0,-25,-2,3,-1
1615922487373555,-4,1,-3,-2,5,2,-3,-3
1615922487373555,0,-3,-8,-4,-14,-5,-2,1
1615922487384526,4,5,-2,3,44,-2,-3,0
1615922487384526,-1,-3,-10,-5,-18,5,2,-1
1615922487392114,0,-5,9,2,-17,1,-2,0
1615922487392114,1,2,-7,-1,-26,5,-1,-1
1615922487406974,-1,-2,0,-5,28,-2,-1,-1
1615922487406974,1,2,14,13,48,7,1,0
1615922487414953,-2,-5,0,-7,23,-3,-1,-2
1615922487414953,-2,-2,-7,3,22,-8,-2,-1
1615922487423953,1,4,3,-6,-18,7,1,0
1615922487423953,-4,-3,-11,-5,-2,0,-3,0
1615922487429948,0,-1,0,-2,-7,-10,-3,-2
1615922487429948,0,0,-2,2,5,6,1,-1
1615922487444872,0,1,6,6,-25,7,1,1
1615922487444872,0,-2,-4,-5,49,12,-3,2
1615922487451854,2,-1,2,2,-9,-5,-1,-3
1615922487451854,-1,-1,-4,5,24,-1,0,0
1615922487466838,-1,1,-5,-5,-53,-10,-1,-2
1615922487466838,2,1,-3,-1,58,3,-1,1
1615922487474792,0,0,5,-2,-78,2,2,1
1615922487474792,-1,-1,3,-1,7,-3,-2,-1
1615922487490822,-4,-7,1,6,25,0,0,-2
1615922487490822,-1,0,-8,-10,-6,-10,-2,-1
1615922487490822,0,0,-2,0,16,3,0,0
1615922487490822,0,5,42,7,-9,-9,1,-1
1615922487505810,-2,-4,-14,-3,-1,6,-2,-1
1615922487505810,-3,-3,0,-6,-4,-16,-3,-1
1615922487511695,-1,-2,-10,-7,39,19,1,1
1615922487511695,-2,-3,-4,4,-1,-5,1,-2
1615922487527675,1,-2,1,-3,-27,0,-1,1
1615922487527675,-1,-4,15,5,16,14,-1,0
1615922487534632,-3,-1,-3,-2,-3,1,-1,0
1615922487534632,1,1,-2,-4,-18,6,-1,2
1615922487550614,-1,-3,-1,-2,12,-7,0,-2
1615922487550614,0,-2,-11,-5,-55,-11,0,0
1615922487550614,2,0,1,1,40,0,0,-1
1615922487550614,-1,1,-1,-1,-34,-7,0,-1
1615922487564553,-1,-3,-6,-2,52,8,-1,0
1615922487564553,-2,0,-11,1,-93,-16,-4,-2
1615922487572531,1,-1,1,5,25,-5,0,1
1615922487572531,0,-2,9,-10,-80,9,0,-1
1615922487587491,-2,-1,2,-1,44,3,2,-1
1615922487587491,-2,-1,-11,3,-11,1,1,0
1615922487602477,-2,-1,-1,-4,-18,-8,-1,-1
1615922487602477,-1,-4,-10,-3,17,1,-2,-1
1615922487610430,0,-2,-7,-2,5,-1,2,1
1615922487610430,-1,2,22,3,-41,-3,1,-2
1615922487611427,-1,1,0,5,30,-11,-3,0
1615922487611427,0,-4,-4,-8,-4,5,-2,0
1615922487624431,-2,1,7,-1,-55,-9,-6,-5
1615922487624431,0,4,-3,0,15,-3,0,-1
1615922487632421,-2,-7,-9,-10,-12,-4,-2,-2
1615922487632421,-2,-2,-6,8,0,0,0,0
1615922487647386,-3,-5,-14,-7,35,-6,-3,-4
1615922487647386,0,3,6,1,38,7,-3,-2
1615922487654366,0,0,3,2,-27,12,0,-2
1615922487654366,-1,-1,5,-2,4,-23,-1,-1
1615922487670372,-1,-1,-10,-2,-45,-5,-2,-1
1615922487670372,-2,-3,1,-2,8,1,1,-1
1615922487672367,-3,1,0,-2,29,4,-1,0
1615922487672367,-1,-4,-17,1,20,-1,-2,-1
1615922487686355,1,2,12,4,7,-11,1,2
1615922487686355,3,5,18,7,8,-15,-4,1
1615922487700315,1,0,-3,-5,-61,1,-4,0
1615922487700315,-2,-1,-8,-7,5,0,1,-2
1615922487707372,2,-3,-10,-5,16,6,0,2
1615922487707372,0,-3,-5,5,-29,6,0,-1
1615922487714253,-2,-3,9,3,32,-16,-7,-4
1615922487714253,-3,-1,8,2,38,13,-1,-3
1615922487730214,1,3,2,4,10,-17,1,0
1615922487730214,-3,-4,-14,-6,19,4,0,0
1615922487731208,-1,-2,-9,-3,-14,-1,0,0
1615922487731208,0,-2,-6,-3,0,0,2,1
1615922487746167,-3,-2,13,10,11,-3,-3,-1
1615922487746167,-2,-6,-7,-6,-3,3,1,-4
1615922487752188,1,7,14,6,-17,-8,2,1
1615922487752188,-1,-1,-12,-6,-38,1,-3,0
1615922487767267,-1,1,9,3,96,14,0,-3
1615922487767267,-1,-8,-3,-2,-42,-11,-4,0
1615922487774223,-1,-1,-13,-6,19,6,2,2
1615922487774223,-1,1,2,0,-38,2,-1,0
1615922487790202,-3,-4,-10,-7,-9,-7,-2,-4
1615922487790202,-2,-1,4,-2,2,15,0,0
1615922487791178,-1,-7,-12,-5,25,-24,-2,-4
1615922487791178,-1,-1,-2,8,7,-3,-1,-1
1615922487806139,-1,4,6,7,9,5,0,-1
1615922487806139,0,1,-8,-5,3,-8,-1,1
1615922487812122,-2,-2,-2,0,-11,8,-2,-2
1615922487812122,-3,2,-3,-1,38,-5,-3,-2
1615922487827082,0,-1,2,2,-40,0,-1,1
1615922487827082,0,0,4,0,81,-4,1,-1
1615922487835060,0,-4,10,4,-13,-1,-2,0
1615922487835060,2,3,0,-10,-11,-6,0,1
1615922487850020,0,-6,-9,-5,-36,16,3,1
1615922487850020,2,8,16,2,-9,-14,-1,1
1615922487851018,-3,-3,-1,1,12,4,-1,0
1615922487851018,-4,-2,-1,-3,-16,0,-2,-3
1615922487865978,-2,-6,-12,-9,-47,-1,-2,-2
1615922487865978,-1,-1,5,2,-4,-1,-3,-1
1615922487872959,-1,-2,-17,-4,-11,-8,-5,-1
1615922487872959,-1,2,18,6,-3,-5,-1,-2
1615922487886961,0,7,8,1,-5,-8,2,2
1615922487886961,-2,-4,-21,-14,-22,-1,-1,-3
1615922487894920,-3,-1,13,1,-30,12,1,-1
1615922487894920,-2,1,13,3,2,0,-2,-2
1615922487909889,0,-4,-2,-2,-69,2,0,-1
1615922487909889,1,-1,-3,-3,-6,-27,-2,0
1615922487910859,1,1,-7,-6,21,-2,2,-1
1615922487910859,2,-1,-8,4,23,11,2,-1
1615922487925881,-1,0,3,-6,5,4,-1,0
1615922487925881,-4,-6,-8,4,-13,11,2,-1
1615922487931813,-2,3,9,4,-10,-7,-2,-1
1615922487931813,0,1,9,3,15,-12,-4,-1
1615922487946845,-2,-1,-8,0,4,-4,-4,-2
1615922487946845,2,2,13,3,5,4,1,1
1615922487954840,-2,-4,-9,-3,2,-5,0,-1
1615922487954840,1,-1,2,-9,-46,13,4,1
1615922487970698,-2,-2,0,0,-39,-7,-3,-3
1615922487970698,-1,-3,3,2,39,6,0,0
1615922487971695,0,3,5,1,-17,1,-1,-1
1615922487971695,-2,-5,-8,0,-28,1,-3,-3
1615922487985658,-1,-2,-2,-6,-22,-33,-4,-1
1615922487985658,-2,-2,-15,-5,-13,11,0,-2
1615922487991673,-2,0,1,-2,-9,4,2,-2
1615922487991673,1,0,-12,-5,13,-13,0,4
1615922488007623,-3,-3,-7,-4,24,3,-2,-1
1615922488007623,-1,2,3,1,-2,-1,1,0
1615922488014581,0,2,6,2,8,-1,-3,-3
1615922488014581,0,-4,-14,-5,3,-1,0,0
1615922488030638,1,0,11,8,37,12,1,-1
1615922488030638,1,6,12,0,-3,-6,-4,-3
1615922488031536,-1,-3,-5,-2,-7,5,0,0
1615922488031536,0,-3,-5,0,54,-2,-1,-2
1615922488046520,-2,-3,-6,-3,-46,4,0,-1
1615922488046520,-2,-6,-14,0,-17,-20,-5,-3
1615922488052520,-2,3,10,2,6,2,-1,0
1615922488052520,-3,-3,-9,-3,31,3,0,-2
1615922488066742,-1,0,9,0,9,0,-2,0
1615922488066742,-1,-4,-11,0,-7,10,2,-2
1615922488074697,4,5,-4,-1,-6,-6,-3,1
1615922488074697,-4,-4,-5,1,-43,-3,-1,-3
1615922488090692,1,1,9,2,43,4,0,0
1615922488090692,-1,-2,-13,-7,-31,-6,0,0
1615922488090692,-1,0,4,0,2,-4,-3,-1
1615922488090692,-2,-3,10,1,10,7,-1,-2
1615922488105715,-1,1,3,-1,-1,2,0,-2
1615922488105715,-3,-5,3,6,53,10,-1,-1
1615922488111597,0,-1,-11,-11,11,6,2,2
1615922488111597,2,1,-6,-4,-24,-15,-3,1
1615922488127645,-3,0,-4,-1,35,16,-1,-1
1615922488127645,0,-4,-6,-7,-5,-1,1,0
1615922488134560,-1,-3,-3,8,32,12,1,-3
1615922488134560,2,2,-4,3,2,-12,-2,3
1615922488151491,0,-1,-7,-5,-29,-19,0,-1
1615922488151491,0,0,7,2,11,11,-1,-2
1615922488152488,-1,-6,-15,-3,-8,-1,0,1
1615922488152488,0,3,-1,0,-16,2,-2,-1
1615922488166475,0,0,15,4,4,4,1,0
1615922488166475,0,3,-7,-5,0,-4,1,1
1615922488172435,-2,-3,13,2,-11,-5,1,-2
1615922488172435,-1,-3,4,0,-29,7,-1,-2
1615922488187511,-1,0,-17,-8,-46,-20,-1,-1
1615922488187511,-1,3,23,4,-38,3,0,1
1615922488194446,-2,-3,-8,-4,10,1,0,0
1615922488194446,0,-4,2,-4,-26,4,2,2
1615922488209388,1,2,0,1,38,1,-1,2
1615922488209388,-2,-7,-9,-17,-56,-16,-4,-2
1615922488217410,0,5,25,16,-7,-2,-1,-2
1615922488217410,-2,1,3,-14,35,-11,-2,-1
1615922488226342,-2,0,-9,3,9,11,3,0
1615922488226342,0,-1,3,-1,-1,1,1,1
1615922488232329,-2,-8,-9,-9,8,13,0,-4
1615922488232329,2,-3,-12,5,29,-3,-1,2
1615922488247305,1,12,26,5,22,2,-1,-1
1615922488247305,0,-1,2,5,30,1,0,-2
1615922488254293,-2,-1,-3,-3,-25,4,-3,-2
1615922488254293,-2,-1,-2,-2,-59,-8,-1,-2
1615922488269227,0,-6,-13,-3,21,-2,1,2
1615922488269227,-1,1,1,3,16,-4,-2,1
1615922488277205,0,-1,-1,-3,-3,-8,0,0
1615922488277205,-4,-3,-4,-2,20,-4,-1,-5
1615922488286181,3,-3,6,5,14,-6,-1,4
1615922488286181,-1,1,17,1,19,4,2,-2
1615922488292194,-1,0,-5,0,13,-8,-1,2
1615922488292194,-2,-2,-3,-6,-88,-25,-2,-3
1615922488307125,-5,-5,-7,-1,78,13,-2,-4
1615922488307125,0,3,-7,2,-34,-2,2,-2
1615922488314106,-2,-4,-17,-10,-50,-5,-1,-2
1615922488314106,1,9,28,15,90,15,0,-1
1615922488330086,1,-9,-4,-2,-52,-9,-1,1
1615922488330086,2,2,2,0,-26,-18,-3,-2
1615922488337046,-2,-4,-11,-2,-5,6,5,0
1615922488337046,0,-2,-6,2,17,8,-1,-2
1615922488354000,-3,-5,-8,-10,-16,2,-1,-3
1615922488354000,-2,-3,8,11,4,-8,0,0
1615922488354998,0,2,-5,-11,-16,19,0,-1
1615922488354998,-1,-2,-1,1,67,5,1,1
1615922488366966,-3,-2,-7,-5,-21,4,0,-1
1615922488366966,-2,-1,-6,-11,-21,4,-4,0
1615922488374945,-1,0,16,17,78,5,-1,-2
1615922488374945,-2,0,-7,-8,-32,1,-1,-1
1615922488389945,-1,-1,-9,0,18,-2,-4,-4
1615922488389945,-5,-4,-3,-1,12,9,1,-4
1615922488396890,-1,-2,-6,-2,3,-8,0,0
1615922488396890,0,1,-4,-1,-9,6,-1,0
1615922488412862,0,-2,-2,-1,10,-4,2,1
1615922488412862,0,-1,-1,2,-4,4,-2,0
1615922488413840,-1,-2,6,3,27,-1,-2,-4
1615922488413840,-2,0,2,-6,-29,-8,0,-2
