timestamp,emg1,emg2,emg3,emg4,emg5,emg6,emg7,emg8
1615922439158181,-2,2,6,2,5,-12,-4,-3
1615922439158181,1,-2,-12,-1,35,4,2,3
1615922439165162,-4,0,11,-1,-46,-5,-2,-4
1615922439165162,-4,-6,-34,-7,23,14,2,0
1615922439181121,0,-2,30,11,-26,-8,-3,0
1615922439181121,1,5,-8,-5,7,6,0,0
1615922439182117,-5,-5,-5,-7,-5,-12,-2,-3
1615922439182117,1,2,1,0,8,14,1,2
1615922439195085,-2,-5,-20,-12,-34,-15,-3,-3
1615922439195085,-2,2,17,13,8,-1,-1,-1
1615922439203085,0,2,-3,-2,31,-7,0,0
1615922439203085,-3,-3,11,1,-16,-23,-4,-2
1615922439226306,-1,-5,-14,7,108,29,2,1
1615922439226306,-2,2,5,-2,-12,-7,-3,-3
1615922439226306,-1,0,-13,-5,7,-2,0,-2
1615922439226306,0,0,25,15,49,5,1,2
1615922439241265,-1,-4,-5,-7,-38,-9,-2,-2
1615922439241265,-1,-2,-17,0,37,6,0,-1
1615922439241265,2,4,20,4,4,4,-1,1
1615922439241265,-4,1,-2,-1,-40,-10,-2,-5
1615922439255230,0,1,-13,-5,-19,-4,-1,-1
1615922439255230,1,1,25,3,14,-16,-2,-1
1615922439263229,1,-5,-16,-6,-28,-7,-1,0
1615922439263229,1,3,9,7,7,-3,2,-2
1615922439278169,-3,2,13,-3,-17,-5,2,1
1615922439278169,-1,-4,-12,-11,66,1,0,1
1615922439285173,-1,0,5,8,-6,-4,-2,-1
1615922439285173,-3,0,-8,-12,-8,-4,-1,-2
1615922439301105,-1,-3,-4,-1,63,-1,-2,-1
1615922439301105,-1,-1,1,1,-49,0,-3,-2
1615922439302103,0,-1,-10,-8,41,1,1,1
1615922439302103,1,-4,-12,4,-7,6,3,1
1615922439315092,1,-1,3,-10,-25,-6,0,2
1615922439315092,-1,1,-3,1,-42,-13,-1,-1
1615922439322602,0,-2,-7,7,8,-1,-2,-1
1615922439322602,-1,-1,6,-5,-4,0,-2,0
1615922439337593,0,-2,-12,-5,-12,-9,-2,-2
1615922439337593,-2,-4,0,1,-7,8,1,-3
1615922439345541,-5,-6,-15,-16,-88,-11,-2,-4
1615922439345541,-2,0,5,0,13,-1,-1,0
1615922439360501,-1,-2,5,10,21,13,0,1
1615922439360501,-1,-3,-28,-14,-5,2,-2,0
1615922439361498,0,3,28,6,23,2,1,0
1615922439361498,-2,-1,6,-3,-33,3,-3,-2
1615922439375461,-2,-3,1,2,9,-22,-1,-3
1615922439375461,0,-4,-18,-3,18,8,0,2
1615922439382445,3,5,13,9,36,-1,-4,-1
1615922439382445,-2,-5,-7,1,8,5,-1,-3
1615922439397426,0,-2,-16,-15,-23,5,2,2
1615922439397426,-4,-3,17,10,-46,-2,-1,-2
1615922439405404,-4,-6,-10,-1,20,3,1,-2
1615922439405404,1,5,20,2,1,0,0,1
1615922439420898,1,4,2,1,6,-4,-3,-2
1615922439420898,1,1,-4,-3,-54,-13,-1,2
1615922439421923,-3,-3,-3,-7,3,0,-3,-4
1615922439421923,-1,-4,-17,-4,5,-9,-2,-2
1615922439437858,0,2,17,7,-41,19,4,0
1615922439437858,1,1,4,0,33,3,-3,-1
1615922439442860,-2,-4,-23,-6,-8,1,2,1
1615922439442860,0,6,8,10,-20,-7,-3,-1
1615922439457801,-1,-2,-10,-10,-67,1,-1,-2
1615922439457801,-3,-6,-4,-4,15,5,-1,-2
1615922439464809,2,3,5,0,14,1,-2,3
1615922439464809,-4,-4,-6,-8,24,6,0,-1
1615922439481735,1,6,5,11,2,-2,-1,0
1615922439481735,0,-1,2,0,-4,0,-2,-2
1615922439488717,1,-2,8,-4,-56,-5,0,-3
1615922439488717,-2,-3,4,5,10,0,0,0
1615922439494700,1,-1,-8,-6,8,-7,-4,-1
1615922439494700,-2,-5,-5,-10,-28,-26,-4,-3
1615922439510685,0,0,1,1,-21,-3,-1,4
1615922439510685,-2,4,10,7,6,-2,0,-4
1615922439517640,-4,-3,-10,1,5,-9,0,-3
1615922439517640,-1,-2,-7,-9,-17,18,0,-2
1615922439525619,0,0,-1,2,28,6,3,2
1615922439525619,2,-2,-8,-5,-39,-4,1,3
1615922439541575,-3,-2,1,-3,52,-1,-1,0
1615922439541575,-2,-1,6,7,2,0,-1,-1
1615922439542572,-2,3,4,-3,14,0,0,-1
1615922439542572,-2,-6,-20,-3,19,11,-1,-1
1615922439555571,3,6,28,5,-17,1,0,1
1615922439555571,0,-3,-18,-5,-7,0,0,1
1615922439562519,-3,-1,7,8,19,-20,-7,-6
1615922439562519,1,-4,-20,-14,-9,1,1,4
1615922439577505,-5,-3,37,17,-13,-8,0,-3
1615922439577505,0,9,1,-2,2,7,1,1
1615922439585482,1,-3,-6,-11,-36,1,1,-3
1615922439585482,-2,-3,-6,5,37,-4,-2,-1
1615922439600418,1,-5,-4,2,66,5,1,1
1615922439600418,2,1,6,5,14,-2,2,1
1615922439601429,-3,-1,8,0,34,4,-1,-1
1615922439601429,1,1,-10,-1,28,3,0,-1
1615922439615404,0,-3,-10,-8,-14,10,0,-2
1615922439615404,-1,-2,5,2,1,-23,-2,-2
1615922439622359,1,1,-12,-6,-30,-1,0,1
1615922439622359,-1,-1,9,-1,-26,1,-2,-1
1615922439637354,-1,0,-26,-9,14,3,-1,0
1615922439637354,1,6,41,13,-10,0,-2,-1
1615922439645321,-2,-1,3,2,-13,1,-1,-2
1615922439645321,-3,-6,-15,-7,4,-1,-1,-4
1615922439661255,0,1,1,-3,-32,-12,-3,-2
1615922439661255,0,-3,-4,-3,51,10,2,0
1615922439661255,1,3,-2,-4,-74,-9,-3,-1
1615922439661255,0,2,17,5,31,2,0,-1
1615922439677213,-3,-6,-20,-13,19,17,-1,-1
1615922439677213,0,1,0,1,-6,-11,1,0
1615922439691175,-3,-6,-4,4,58,10,0,-1
1615922439691175,0,-1,-10,-4,-56,-11,-4,-1
1615922439698156,1,3,23,3,-23,-3,1,2
1615922439698156,-2,-2,0,0,25,3,-3,-3
1615922439713143,-1,-1,-3,-6,-6,2,3,1
1615922439713143,-1,-3,-23,-14,-31,-3,-2,-1
1615922439721097,-1,2,25,21,57,-1,1,0
1615922439721097,-1,-2,-28,-14,-65,-5,-3,0
1615922439722096,2,0,4,5,32,0,-2,-1
1615922439722096,-2,-2,3,0,17,7,-2,-2
1615922439737055,-2,0,-13,-10,-63,-30,-6,-4
1615922439737055,2,0,1,-2,71,11,-1,0
1615922439743038,-1,-5,-16,-1,-2,-1,-1,0
1615922439743038,0,2,11,1,-21,3,3,0
1615922439757996,0,-3,-8,-3,-10,1,-1,-1
1615922439757996,-2,1,-1,8,-3,13,-1,-5
1615922439765004,1,-1,-11,-5,-17,-10,-2,0
1615922439765004,-2,5,41,11,20,-6,-1,1
1615922439779962,-3,-5,-22,-7,-39,-6,-1,-1
1615922439779962,-2,-5,-15,-3,-2,2,-1,-2
1615922439787917,0,0,3,-2,44,17,-1,-2
1615922439787917,2,-1,9,0,-60,-18,-2,2
1615922439796892,2,6,34,12,-2,-1,-2,-1
1615922439796892,0,1,11,6,-3,-4,3,0
1615922439802904,-4,-4,-10,-3,38,10,-1,-3
1615922439802904,0,0,-2,0,-10,-11,-1,-2
1615922439817836,1,-4,-21,-6,24,7,-2,2
1615922439817836,-2,-2,8,6,-3,-9,1,1
1615922439825815,-1,8,30,1,-35,2,0,-1
1615922439825815,-1,-5,-17,-1,45,1,-1,-2
1615922439848754,1,3,14,-3,-7,-3,1,1
1615922439848754,-3,-1,-18,1,-1,0,-1,0
1615922439848754,0,-7,-6,0,-4,-4,0,0
1615922439848754,-2,-2,-12,-12,-41,-1,-3,-4
1615922439863738,2,4,0,-2,1,19,3,1
1615922439863738,-4,-4,-5,-5,27,0,-3,-1
1615922439863738,0,-1,-6,-6,-28,-9,-1,-2
1615922439863738,-1,2,28,12,-8,-4,-2,2
1615922439877701,-4,-6,-23,-4,74,11,0,-3
1615922439877701,1,-2,5,0,-4,-4,-2,-1
1615922439885679,1,-1,-5,-3,-9,1,0,2
1615922439885679,0,-3,-11,-1,-1,5,-3,-1
1615922439900642,-2,-3,-16,-9,11,-10,-1,-2
1615922439900642,-3,0,-2,-2,-8,6,-2,-1
1615922439916573,-2,-2,9,8,24,-9,-3,-3
1615922439916573,1,-2,-9,-9,-16,-17,-1,-1
1615922439918571,-1,0,-8,0,-65,-9,-2,-2
1615922439918571,-1,-4,-7,-16,-17,-12,-3,-3
1615922439922556,0,-3,-19,4,-22,3,2,1
1615922439922556,-2,1,11,2,18,11,2,0
1615922439937536,-1,0,-1,-1,49,3,-1,0
1615922439937536,-2,-3,-9,-6,-38,-6,-3,-2
1615922439945523,-2,6,35,11,3,1,-2,-1
1615922439945523,2,0,-10,-2,1,-2,3,1
1615922439960455,-3,-6,-10,-8,-50,-9,-2,-4
1615922439960455,1,1,-13,0,31,3,2,2
1615922439967438,-1,0,18,2,23,-1,-1,0
1615922439967438,0,-4,-13,1,7,1,1,0
1615922439983394,1,1,0,-1,-31,7,-2,-1
1615922439983394,0,-4,-6,-8,11,2,0,0
1615922439985388,0,0,-11,-2,-13,-12,-2,2
1615922439985388,-2,-2,-8,-13,-74,-3,-3,-1
1615922439997356,0,-3,10,11,79,2,1,1
1615922439997356,-2,-3,6,-7,3,-5,-4,-2
1615922440005336,-3,-7,-27,-9,-10,-4,-3,-5
1615922440005336,2,4,6,13,32,22,1,-2
1615922440020295,1,-4,-1,-5,-16,-6,0,2
1615922440020295,-1,0,-3,7,1,5,-1,-4
1615922440027277,-2,-3,-24,-19,-19,-3,0,-3
1615922440027277,-3,3,35,15,26,-1,-1,-1
1615922440051237,-2,-1,-3,1,-6,8,-2,0
1615922440051237,2,5,15,6,-32,-8,0,1
1615922440052210,-1,-2,-11,-7,-5,7,-2,-1
1615922440052210,-7,-6,-13,-12,-45,-6,-4,-5
1615922440058194,3,1,-11,0,-7,-2,2,4
1615922440058194,-2,-2,20,-4,-3,-10,-1,0
1615922440065199,-4,-4,-5,6,40,-8,-1,-3
1615922440065199,2,6,6,2,30,-3,4,4
1615922440080155,-3,-1,-18,-3,-33,-5,-3,-5
1615922440080155,0,-4,-3,-1,6,10,-1,1
1615922440088120,2,-1,-15,-10,-18,-5,1,1
1615922440088120,2,3,39,18,46,3,-2,1
1615922440103076,-4,-2,0,-1,-6,-10,-1,-2
1615922440103076,-1,1,2,4,-23,17,1,-2
1615922440104074,1,-1,1,-2,22,13,0,1
1615922440104074,-4,-5,-20,-6,-22,-2,0,-4
1615922440119031,-1,1,14,-3,20,5,-1,-1
1615922440119031,1,-2,-5,2,24,-1,0,-2
1615922440125015,-3,1,3,0,-15,10,-2,-2
1615922440125015,1,0,4,9,-29,0,1,0
1615922440141971,2,-2,7,4,29,2,3,3
1615922440141971,-2,-5,-13,-14,-35,-9,-1,-3
1615922440147958,-1,-3,1,2,6,0,-1,-1
1615922440147958,0,-4,-31,-13,1,0,0,0
1615922440162914,-3,0,30,12,-37,-8,-2,-2
1615922440162914,0,0,4,2,21,-23,-1,2
1615922440163911,-4,-3,16,-1,-27,-15,-4,-5
1615922440163911,-2,-4,-12,-10,45,8,1,-1
1615922440177875,1,0,-17,-6,10,-3,-4,1
1615922440177875,0,0,1,6,11,5,-2,0
1615922440184888,2,2,4,1,-32,-8,0,0
1615922440184888,-4,-4,-4,-3,-2,-12,-7,-4
1615922440199815,-1,2,-6,4,14,0,0,-3
1615922440199815,1,-2,-3,-10,-37,7,0,-1
1615922440207819,1,1,4,15,39,5,1,0
1615922440207819,1,1,10,0,-13,3,-1,-1
1615922440223752,-1,-6,-12,-5,24,4,3,1
1615922440223752,0,2,0,-2,-67,-16,-3,-1
1615922440223752,-2,-1,5,-5,7,1,-2,-1
1615922440223752,0,-2,-4,-4,11,9,1,2
1615922440237714,0,1,14,8,28,0,-2,-3
1615922440237714,-1,-2,3,-1,16,0,-1,-3
1615922440245845,1,3,3,2,-61,-8,-2,1
1615922440245845,0,0,-10,-9,15,-4,-1,-2
1615922440261780,-1,-2,-8,2,-8,-10,-3,-2
1615922440261780,-2,-3,-11,3,-9,19,2,-1
1615922440267790,0,4,14,9,64,-1,-2,0
1615922440267790,-1,-4,-10,-5,-29,-17,-4,-2
1615922440283820,0,-5,-15,-12,-42,6,0,0
1615922440283820,-3,-2,2,4,17,-7,-2,-4
1615922440284721,-2,-2,-4,-5,9,3,-1,-2
1615922440284721,0,1,-13,0,4,-2,2,-1
1615922440297683,-3,-1,12,3,23,5,-2,-2
1615922440297683,0,-1,-10,-3,0,1,0,1
1615922440305764,-1,-2,-11,-2,51,2,-1,-2
1615922440305764,-1,0,-4,-9,1,10,1,-2
1615922440320623,0,-3,1,1,-49,4,1,1
1615922440320623,-3,-5,-11,-5,98,-3,-2,0
1615922440344558,1,5,17,4,-14,11,2,-2
1615922440344558,-3,-5,-13,3,8,0,-2,0
1615922440346553,0,3,5,-7,-26,-18,0,2
1615922440346553,-2,-3,10,4,-4,15,-3,-4
1615922440347550,2,-2,-17,-10,-6,-5,-1,1
1615922440347550,0,2,38,12,-26,-12,-1,-2
1615922440357524,1,-4,-16,-7,-30,-8,-3,-1
1615922440357524,-5,-3,-11,4,45,6,1,-2
1615922440365526,-3,-2,7,-4,-56,-12,0,-3
1615922440365526,2,2,-9,-9,11,9,0,1
1615922440380482,-1,-1,-3,2,35,7,-1,-3
1615922440380482,4,1,12,-1,-78,-11,0,3
1615922440387444,-3,-4,-19,-10,-16,-3,0,-3
1615922440387444,-1,1,51,20,85,9,-2,-1
1615922440403536,-2,0,12,-5,3,8,2,-2
1615922440403536,-1,0,-5,-10,-3,-18,-5,-4
1615922440404426,-2,-2,0,6,9,10,0,0
1615922440404426,-1,-2,-4,-3,-29,-9,-1,-2
1615922440417391,-3,-3,-21,-2,18,6,-1,-2
1615922440417391,-2,3,21,4,11,12,2,-1
1615922440425371,-1,-3,-5,-1,-23,-14,0,1
1615922440425371,2,-1,4,4,29,5,0,1
1615922440440496,-4,1,15,6,-5,-1,-3,-5
1615922440440496,-1,1,-9,-8,-34,-7,2,-3
1615922440447475,2,3,5,3,28,4,0,1
1615922440447475,-1,-6,-26,-12,-32,2,-1,-2
1615922440463434,-1,-4,-1,-8,55,1,0,1
1615922440463434,2,2,-12,5,-62,3,1,2
1615922440464431,-5,-6,6,0,-7,-7,-1,-2
1615922440464431,0,1,-4,-5,-50,-14,2,-1
1615922440477422,-3,-2,-14,-2,-7,-7,-4,-4
1615922440477422,1,3,10,4,7,-4,-4,2
1615922440485400,-2,-1,2,1,19,0,-2,0
1615922440485400,-2,-5,-43,-15,-21,-1,1,0
1615922440500436,-1,6,54,18,-53,-4,0,-1
1615922440500436,0,-1,-5,0,71,-7,-2,-2
1615922440507317,0,-1,-6,-6,-89,2,0,-2
1615922440507317,-2,-3,1,-2,11,-8,-4,-3
1615922440523275,4,1,-22,-10,-10,7,3,4
1615922440523275,-4,-1,3,6,-28,-34,-3,-1
1615922440531257,-2,0,19,9,23,5,-2,-2
1615922440531257,-3,-2,-2,-3,-14,-1,-5,-4
1615922440538234,3,2,-15,-6,-18,-4,2,3
1615922440538234,2,-1,16,4,11,15,2,3
1615922440545257,-2,-4,-27,-5,20,-3,-1,-2
1615922440545257,-2,3,10,5,-9,-13,0,1
1615922440560298,1,1,3,-2,17,6,-4,-2
1615922440560298,-2,-4,-4,-3,-62,6,-3,-2
1615922440567279,-1,3,-5,-5,1,-2,-2,-1
1615922440567279,0,2,20,11,8,4,1,1
1615922440584234,-2,-6,-19,-7,-43,-11,1,-3
1615922440584234,-1,-1,-15,1,91,-10,-4,-2
1615922440591216,-1,5,25,9,-14,-2,-2,0
1615922440591216,-2,-1,-5,-1,-8,6,-2,1
1615922440606422,-2,-3,-25,-7,25,-10,-4,-4
1615922440606422,0,-2,-11,-1,21,13,3,-1
1615922440606422,-1,-4,-6,-13,-56,-14,-4,-1
1615922440606422,1,2,-7,-3,35,3,1,1
1615922440622271,-1,0,6,4,23,0,1,-1
1615922440622271,-2,-3,-1,-3,-15,5,0,-3
1615922440628254,0,-3,-5,-1,25,6,1,1
1615922440628254,0,0,8,-14,-74,8,0,0
1615922440643215,-1,-1,-2,9,-8,7,-2,-2
1615922440643215,2,9,33,-1,-31,-7,1,1
1615922440644212,-1,-6,-11,-2,-9,-10,-2,1
1615922440644212,-3,-3,-14,-2,52,-6,-6,-2
1615922440657296,-2,-3,9,1,-11,2,-1,0
1615922440657296,0,0,-6,2,58,5,-1,1
1615922440665275,-3,-3,-6,-5,-19,7,-2,-4
1615922440665275,0,2,9,11,14,2,2,3
1615922440680239,-4,-4,-4,-5,-4,-3,1,0
1615922440680239,-2,-6,-17,-13,-1,3,-3,-1
1615922440688239,-2,4,31,19,-18,-8,1,-4
1615922440688239,-1,-2,-14,-15,23,10,0,-3
1615922440703200,1,1,8,-4,-1,10,0,0
1615922440703200,1,-1,-8,-3,-5,-4,-1,0
1615922440711179,-1,-4,-16,-3,24,7,-2,-1
1615922440711179,0,-1,-1,-1,-52,-13,-2,-4
1615922440718160,-2,-2,-13,-4,97,8,0,-1
1615922440718160,-2,-2,28,15,-23,3,0,0
1615922440725142,0,2,-3,-8,56,1,3,0
1615922440725142,0,-3,2,9,26,-2,-1,-2
1615922440740274,-1,-3,-7,-5,-22,-6,-2,-2
1615922440740274,1,-1,-24,-8,-21,5,3,4
1615922440748334,0,-2,1,3,16,-3,-1,0
1615922440748334,-2,-4,-11,1,-5,2,-3,-2
1615922440763200,0,6,2,1,-2,-2,-1,-4
1615922440763200,-3,-2,3,2,1,-16,-2,-2
1615922440771155,0,-3,-4,0,9,1,-3,-2
1615922440771155,0,-2,-12,-5,-58,-1,1,0
1615922440778137,-1,-4,1,-3,53,8,-3,1
1615922440778137,-1,9,20,12,-12,-1,0,-2
1615922440785118,2,1,-1,-2,6,6,1,1
1615922440785118,-1,-4,-14,-5,4,-1,-1,2
1615922440800078,0,0,2,-1,-25,-5,-1,-1
1615922440800078,-3,-5,-11,-3,27,4,-1,-2
1615922440808057,-1,4,13,1,-16,3,-1,0
1615922440808057,-2,-1,3,-2,13,1,-1,-3
1615922440823017,0,0,-2,1,-25,3,2,0
1615922440823017,-3,-4,3,-8,-65,-9,-3,-2
1615922440831036,0,-5,-27,-1,58,1,2,-1
1615922440831036,-3,3,15,-2,-43,-15,-1,-3
1615922440837977,0,2,16,15,0,-3,-1,-1
1615922440837977,0,-2,1,-7,11,8,-1,-1
1615922440844979,-1,-3,-10,-3,-36,-9,-2,-1
1615922440844979,-1,1,0,-2,29,2,1,0
1615922440859944,-4,-1,9,3,-46,-18,-4,-4
1615922440859944,-2,-2,-13,-9,-23,4,-2,-2
1615922440867920,-2,-2,-10,-3,14,4,1,1
1615922440867920,1,6,8,10,18,6,2,1
1615922440883853,-2,-2,-12,-10,-22,-6,-3,-1
1615922440883853,0,-1,7,0,-4,-6,-3,-1
1615922440898920,-1,-2,-9,-8,16,-3,-1,-3
1615922440898920,-2,-5,11,5,39,14,1,-3
1615922440905801,0,0,-12,1,-13,3,4,1
1615922440905801,2,1,-14,-4,22,-9,0,1
1615922440906792,1,4,9,-2,51,6,0,0
1615922440906792,-1,-2,21,9,-30,3,2,0
1615922440920756,1,-2,-5,1,21,3,-3,0
1615922440920756,-2,-6,-30,-12,33,4,0,0
1615922440927471,0,5,26,15,-34,-6,-1,-2
1615922440927471,2,3,-10,0,-18,-7,0,-1
1615922440942431,1,-1,5,-7,20,15,-1,1
1615922440942431,-6,-6,-15,-6,-16,-21,-2,-6
1615922440951407,1,5,23,-3,-54,-7,0,2
1615922440951407,-3,-4,-22,-6,1,8,-3,-4
1615922440974346,0,-1,7,3,-28,-9,-1,1
1615922440974346,1,0,1,4,-1,7,0,1
1615922440975343,-3,-6,-5,-5,18,4,-3,-3
1615922440975343,0,-4,-2,-2,19,-14,-5,0
1615922440980438,0,2,7,-1,-29,-11,0,0
1615922440980438,0,-3,-1,4,16,9,1,-1
1615922440988338,0,-1,-5,3,-10,-6,-1,-1
1615922440988338,-2,-3,-5,-13,-13,-2,-2,0
1615922441003309,-1,0,13,13,38,1,-1,0
1615922441003309,-1,-2,11,-2,4,3,-1,-2
1615922441011247,-3,-2,-32,-8,-21,8,-1,-1
1615922441011247,-2,1,0,3,0,-6,0,-3
1615922441026240,0,-4,-17,-7,-48,2,0,-3
1615922441026240,-1,0,12,6,4,1,-1,-2
1615922441026240,-2,-5,-16,-5,-16,0,-1,-2
1615922441026240,0,-5,-10,-6,17,4,1,1
1615922441040209,-5,0,12,7,-15,4,1,-6
1615922441040209,1,6,-2,5,-2,-9,-3,2
1615922441048253,0,1,24,4,-38,-13,-3,-1
1615922441048253,-3,-2,-6,5,37,0,-3,-2
1615922441063138,-2,-4,-5,-5,0,-4,-3,1
1615922441063138,0,0,3,-3,13,20,0,0
1615922441070092,1,-1,6,0,-15,1,0,-1
1615922441070092,-2,-1,1,3,21,-3,-3,-2
1615922441086050,0,1,-9,-9,20,-3,-3,-2
1615922441086050,-2,-3,-1,-4,-13,7,3,-1
1615922441087047,0,4,18,11,19,2,-1,1
1615922441087047,-4,-4,4,-4,-20,-14,-5,-3
1615922441100013,0,-1,-14,-11,-6,4,-2,-2
1615922441100013,-2,-2,15,8,8,-1,0,-2
1615922441107992,0,-2,-10,-1,42,3,2,0
1615922441107992,0,2,-2,-9,-32,-8,0,2
1615922441122951,0,-4,18,8,37,5,-1,2
1615922441122951,-3,-1,-8,-12,-34,-29,-3,-4
1615922441129960,-2,-7,-10,0,4,7,1,0
1615922441129960,-2,-5,-1,-2,-24,1,2,-2
1615922441145920,2,3,-15,0,-3,-6,0,3
1615922441145920,2,-2,1,1,14,3,3,2
1615922441146888,-3,-2,-11,-11,-8,3,-2,-4
1615922441146888,2,-1,9,8,-12,3,2,1
1615922441159882,-3,0,6,-1,-31,1,-3,-3
1615922441159882,2,1,-8,3,10,7,2,2
1615922441167855,0,0,-8,-1,6,-7,-2,-1
1615922441167855,0,2,14,1,-13,-3,-3,0
1615922441182791,-4,-4,-7,-3,-9,-6,0,-4
1615922441182791,-2,2,7,3,-18,8,-1,1
1615922441190770,-1,-3,-7,-3,-29,-5,-1,-3
1615922441190770,2,7,15,9,21,-2,0,0
1615922441205753,-3,-7,-39,-9,39,-2,1,0
1615922441205753,0,4,24,-1,-36,-11,0,1
1615922441206729,-3,-3,-2,-7,-16,-5,-1,0
1615922441206729,-2,-5,-23,-8,-33,4,1,-1
1615922441220691,3,3,18,3,-48,-23,-3,1
1615922441220691,-6,-6,-17,-4,71,1,-4,-6
1615922441227671,-2,0,7,1,-24,-8,-2,-1
1615922441227671,1,-2,0,-2,-1,2,-1,2
1615922441250610,2,1,-4,-6,1,-5,-1,0
1615922441250610,0,0,13,8,-26,5,0,0
1615922441251607,0,-6,-11,-5,25,9,0,0
1615922441251607,-1,0,-35,-18,8,-12,-2,-1
1615922441265595,0,5,65,25,8,9,-2,0
1615922441265595,0,-3,-20,-3,-45,-2,-4,0
1615922441266567,-1,1,-1,4,27,-5,-1,-3
1615922441266567,-2,0,-8,-5,-23,9,-1,-3
1615922441280550,3,1,1,-7,47,10,1,3
1615922441280550,-1,-1,-4,3,-3,-1,0,-2
1615922441287512,-1,-1,7,6,12,-2,-1,-1
1615922441287512,-1,1,4,-3,20,1,-1,0
1615922441302572,-2,-1,-13,-3,-14,-2,1,-2
1615922441302572,-1,-5,-16,-6,12,3,-1,-1
1615922441310450,0,6,8,-2,-20,-1,0,2
1615922441310450,-1,0,13,7,46,3,-2,0
1615922441326436,-4,-9,-27,-9,-14,-8,-1,-1
1615922441326436,-1,5,9,3,25,-2,-3,-2
1615922441326948,-1,-9,-35,-15,-8,7,1,-1
1615922441326948,1,3,35,12,-5,-6,0,0
1615922441339930,-6,-5,-21,-8,-1,5,-3,-4
1615922441339930,-2,-4,2,-7,-77,-6,2,0
1615922441347906,-3,-2,-2,2,29,2,-4,-4
1615922441347906,0,0,1,-1,32,5,-1,-1
1615922441362871,-1,-1,-1,-1,-16,-34,-3,0
1615922441362871,3,2,3,6,-6,2,1,2
1615922441369853,-1,5,27,6,9,-5,-2,-2
1615922441369853,-2,-6,-27,-9,-12,-5,-2,-2
1615922441385810,0,3,26,5,-24,-3,0,1
1615922441385810,-4,-3,-8,-3,60,8,-1,-1
1615922441386807,1,-3,-16,-11,-14,-8,-1,1
1615922441386807,-1,0,15,4,27,3,2,-1
1615922441401767,-1,-3,-25,-7,8,1,-1,-1
1615922441401767,2,3,39,16,37,-7,-2,1
1615922441407752,-3,-4,-4,-5,-11,12,-1,-3
1615922441407752,-2,-2,-12,-1,24,-19,-1,2
1615922441422711,-5,-2,-5,-1,25,7,-3,-6
1615922441422711,3,1,3,3,-21,2,-1,0
1615922441430203,-1,1,2,-4,-29,-8,-3,-1
1615922441430203,1,-2,4,6,49,5,0,-2
1615922441454204,-2,-3,4,-5,-18,4,-1,-2
1615922441454204,0,-1,-18,-5,-5,-1,0,-2
1615922441455182,2,3,13,6,31,0,1,0
1615922441455182,-1,-3,-1,2,-24,3,-2,0
1615922441460168,0,0,3,-2,-12,5,0,2
1615922441460168,-5,-7,-20,-7,17,0,0,-3
1615922441468148,2,3,8,5,32,9,1,-1
1615922441468148,0,-2,-6,-6,-25,-14,1,0
1615922441483128,-1,-1,1,6,64,11,1,-1
1615922441483128,-2,1,-1,-6,-57,-2,-3,-1
1615922441490118,-1,-2,2,2,38,-4,0,0
1615922441490118,-1,1,0,-2,-31,3,-2,-1
1615922441506047,3,4,-10,-4,14,7,0,-1
1615922441506047,-1,1,9,-1,-4,-2,0,0
1615922441507044,1,2,5,10,-29,-6,-1,2
1615922441507044,1,-5,-9,-4,-3,-6,-2,-1
1615922441520009,-3,-3,6,-1,-33,-8,-2,-3
1615922441520009,-4,-5,-18,-15,3,3,-2,-3
1615922441527413,0,3,9,-5,10,14,1,2
1615922441527413,-2,-1,3,-1,-3,1,-2,-3
1615922441542375,4,0,-21,-7,-10,2,0,2
1615922441542375,-1,-3,8,1,-7,4,-1,-1
1615922441550327,-3,-4,-4,-1,59,-5,-4,-4
1615922441550327,-4,-3,-16,-3,22,7,-2,-3
1615922441566284,-3,-5,-5,-6,-27,-8,-4,-4
1615922441566284,2,4,14,6,15,0,2,2
1615922441566284,-1,-3,-18,-7,-9,-5,-2,-1
1615922441566284,-3,1,19,13,-20,-9,-1,-1
1615922441580267,-1,-1,-10,-3,-3,-14,1,0
1615922441580267,-3,-3,-8,-2,-11,5,0,-1
1615922441588324,-1,-3,-14,-6,-29,3,2,0
1615922441588324,0,-1,-1,-3,8,7,1,-2
1615922441604183,2,5,20,3,11,18,5,3
1615922441604183,1,-3,10,1,-5,-28,-5,-3
1615922441610167,-2,-2,-4,3,-8,-8,0,-2
1615922441610167,2,2,-14,-7,-31,14,0,0
1615922441626148,-4,-4,0,0,-6,-12,-1,-4
1615922441626148,-3,-2,-20,-1,19,1,-1,0
1615922441627149,-1,0,16,-3,-39,-6,-3,-1
1615922441627149,0,-1,-4,4,-4,-7,-2,-1
1615922441640115,1,-2,-9,1,17,4,-2,1
1615922441640115,-1,-3,16,-2,-4,-5,-2,-3
1615922441656281,0,-3,-7,-1,-12,-4,-1,-1
1615922441656281,-3,-1,-7,-4,22,1,-3,-3
1615922441663153,3,2,4,6,4,0,3,5
1615922441663153,-4,-4,-17,-2,50,3,0,-1
1615922441670161,0,3,29,9,-44,-4,-2,0
1615922441670161,0,-3,-13,-4,-30,7,4,-1
1615922441685095,0,1,17,3,-6,0,-1,-1
1615922441685095,3,1,-1,3,8,4,2,2
1615922441693097,-2,-1,-3,-1,-36,-10,2,0
1615922441693097,1,0,-8,-6,4,-2,0,-1
1615922441708033,-3,-4,-6,-5,-7,-6,-4,-4
1615922441708033,-1,3,16,4,-14,-3,-1,0
1615922441709032,0,0,1,1,26,-1,0,-2
1615922441709032,-2,-2,25,2,-60,-11,-1,-1
1615922441722994,-3,-4,-9,-4,21,9,-3,-2
1615922441722994,-2,-1,4,-2,-30,-2,-2,-2
1615922441730036,-2,-1,-14,-3,-2,0,-2,-2
1615922441730036,0,-1,1,3,21,-7,-3,0
1615922441745296,1,2,4,6,-10,6,1,1
1615922441745296,-6,2,-10,-14,-53,-12,-7,-6
1615922441753268,0,-1,1,5,35,-8,-1,-4
1615922441753268,1,0,6,-9,-29,2,1,3
1615922441760230,-1,-4,-9,-3,-14,3,-1,0
1615922441760230,2,2,7,9,21,3,2,0
1615922441768208,2,1,10,-5,-30,-13,-3,-1
1615922441768208,-3,-3,-22,-4,30,16,0,-4
1615922441783167,2,3,18,12,31,-24,-2,0
1615922441783167,0,-2,4,3,-13,2,0,1
1615922441790185,-2,-1,0,-7,-5,8,2,0
1615922441790185,-2,-4,-6,4,22,-4,-1,0
1615922441805217,-5,-4,-15,-12,-3,-3,-4,-5
1615922441805217,3,1,-8,6,11,1,2,3
1615922441813088,1,-2,12,1,5,0,-4,-4
1615922441813088,-1,-4,-6,-7,-36,-3,-1,-1
1615922441820069,-2,-5,-7,-4,-30,-11,-4,-4
1615922441820069,3,11,17,9,11,-2,-1,2
1615922441828074,-3,-4,-17,-7,-16,5,1,0
1615922441828074,-1,-2,-4,0,28,-15,-2,-2
1615922441843034,2,6,7,1,1,-2,0,0
1615922441843034,-5,-6,-4,0,6,4,3,-2
1615922441849989,-2,-2,-14,0,-21,-5,-4,1
1615922441849989,-4,2,-4,-2,13,-3,-4,-3
1615922441864949,2,2,20,2,12,3,2,4
1615922441864949,2,-1,-17,-6,-26,0,1,0
1615922441880907,-3,-5,-25,-9,39,0,1,2
1615922441880907,-1,0,29,11,39,-1,-1,-3
1615922441888889,0,0,-14,-5,-6,1,0,0
1615922441888889,-1,-4,-13,-6,5,5,-1,-2
1615922441888889,0,0,13,1,35,5,1,1
1615922441888889,0,0,-8,-5,2,-3,-1,0
1615922441902951,-4,-2,-1,4,32,10,-1,-3
1615922441902951,-2,-4,0,1,19,18,-2,-2
1615922441910827,1,2,2,-4,2,-2,0,1
1615922441910827,0,-6,-5,2,-14,1,0,1
1615922441925819,-2,1,-5,-11,-25,3,0,-1
1615922441925819,1,-3,0,0,10,-1,-1,2
1615922441933789,-4,3,13,12,4,1,0,-4
1615922441933789,-2,-1,0,-1,-10,0,-1,0
1615922441948725,1,-3,-17,0,19,13,1,0
1615922441948725,-2,-2,16,-10,-71,-17,-2,-3
1615922441949723,1,0,2,4,-9,-5,-1,1
1615922441949723,1,2,-5,0,-1,-1,-2,-1
1615922441962688,-2,-2,-5,-4,0,-5,-1,-4
1615922441962688,-2,-1,1,3,26,-1,-1,0
1615922441970667,-1,-3,-12,0,-5,6,3,1
1615922441970667,-1,0,1,-8,-39,11,2,2
1615922441985651,-2,-5,-11,8,43,12,-2,0
1615922441985651,1,4,10,-7,-12,-9,-3,-3
1615922441993605,-1,-5,-17,-11,2,-15,-3,-2
1615922441993605,-2,1,-12,1,-2,6,-1,-3
1615922442008566,-3,1,18,2,-6,-9,-2,2
1615922442008566,-2,-6,-22,-8,27,2,2,-1
1615922442009587,2,6,11,12,46,13,1,0
1615922442009587,-1,-3,2,-6,-18,-7,-3,-2
1615922442022528,-3,-4,5,2,9,-7,-1,-1
1615922442022528,2,-1,-9,-1,22,0,-2,0
1615922442030528,-5,-1,2,-2,-21,11,-1,-3
1615922442030528,-2,0,-14,-4,10,-14,-1,0
1615922442045470,1,-2,2,3,-50,-3,6,2
1615922442045470,-5,-4,-3,2,48,7,-3,-4
1615922442053449,0,-3,-2,0,-20,-3,-1,0
1615922442053449,1,7,6,-7,13,-1,1,1
1615922442068429,1,2,-2,-1,-51,-2,0,-1
1615922442068429,1,-4,-10,-6,-24,-8,-1,-3
1615922442069403,0,-2,-2,-3,68,10,-2,-1
1615922442069403,-1,0,26,10,18,-7,3,0
1615922442082368,1,-2,-1,-3,-9,-3,0,2
1615922442082368,-5,1,6,0,0,1,-1,0
1615922442090347,-1,0,0,-4,11,-6,0,-1
1615922442090347,0,-3,-8,-7,32,1,-3,-1
1615922442105311,-2,-2,5,-3,-25,-19,-1,-2
1615922442105311,3,2,12,1,-2,-2,2,2
1615922442113286,-1,-2,-1,7,-14,-6,0,-1
1615922442113286,-1,-2,-4,-2,-10,5,-2,-1
1615922442128246,-1,2,18,3,-1,-2,-1,-3
1615922442128246,0,0,-14,-7,-9,2,-1,0
1615922442129243,-4,-2,-6,-4,-25,-7,-2,-4
1615922442129243,-1,-4,1,4,-41,-1,-1,-2
1615922442142359,-2,-2,-6,-10,17,1,-3,-3
1615922442142359,-2,-2,22,11,-8,-8,-2,-1
1615922442150337,0,2,10,-5,-74,-2,0,1
1615922442150337,0,-1,-17,0,-14,-10,-1,0
1615922442165296,-1,-2,-13,0,31,9,0,-4
1615922442165296,-1,-1,0,4,-14,-14,1,0
1615922442173276,0,0,4,-3,-30,-14,0,1
1615922442173276,0,3,1,3,-11,4,1,1
1615922442188259,-1,-4,-24,-7,42,1,0,0
1615922442188259,-2,1,18,-4,-19,1,-2,-4
1615922442189259,0,-2,0,3,13,-1,2,2
1615922442189259,-1,-4,-7,-4,-2,2,-1,-1
1615922442203307,1,4,-2,-1,11,2,-2,-1
1615922442203307,0,-2,0,2,9,13,4,0
1615922442210177,-1,-3,0,4,0,-4,-1,0
1615922442210177,-1,-1,3,-3,-2,8,-1,-1
1615922442225161,-2,0,-1,-5,-46,-6,-2,-1
1615922442225161,-1,-2,-15,-8,-1,13,0,0
1615922442233216,1,0,6,10,11,-7,-3,0
1615922442233216,0,0,8,1,-18,1,0,0
1615922442248076,-2,1,-1,1,-10,5,1,1
1615922442248076,0,1,3,1,11,-4,-1,2
1615922442249073,-3,-2,-6,-6,22,1,-1,-2
1615922442249073,2,3,6,5,-19,-4,-1,-2
1615922442271048,2,-3,-1,3,4,5,1,2
1615922442271048,0,-1,-14,-8,35,4,-3,-1
1615922442272045,-3,-6,-11,-9,-15,-4,-7,-5
1615922442272045,2,1,30,10,80,11,3,3
1615922442285011,-5,-1,1,-5,-10,-12,-5,-2
1615922442285011,-1,-5,-14,-6,-44,-1,-2,-3
1615922442293992,0,0,-1,-7,-45,12,3,-1
1615922442293992,1,-1,-17,-4,-2,-4,-2,-1
1615922442308946,4,5,30,14,-23,-5,0,5
1615922442308946,-5,-5,-20,-3,9,-1,-1,-6
1615922442308946,-2,-1,-5,-8,46,2,-2,-2
1615922442308946,-3,-5,-10,-3,-31,-2,0,-3
1615922442322909,2,-1,-9,-1,5,-6,-2,-1
1615922442322909,0,-1,-2,1,-6,-4,-1,-2
1615922442330887,2,1,8,0,-25,-6,1,2
1615922442330887,-3,-5,-22,10,30,-2,-3,-3
1615922442344977,-3,-2,12,-7,-6,-5,-3,-5
1615922442344977,2,1,17,11,29,5,0,3
1615922442360934,-1,2,-8,-6,-27,4,-3,-1
1615922442360934,-2,-2,-4,-8,-28,-22,-5,-3
1615922442368913,-3,1,-2,-1,18,9,1,-3
1615922442368913,0,2,8,5,21,1,-2,0
1615922442369910,-2,-2,-8,0,28,11,2,-1
1615922442369910,-2,1,10,2,-26,3,0,-1
1615922442382875,-1,-1,-3,-2,22,-5,-2,-3
1615922442382875,-1,-2,-13,-3,-31,-8,0,2
1615922442389861,-1,-4,-5,-2,3,5,1,0
1615922442389861,-4,-4,4,3,16,14,0,-2
1615922442405880,-2,-1,-3,-7,-38,3,0,-2
1615922442405880,0,1,-22,-12,1,-8,0,1
1615922442412796,-1,6,52,22,11,10,2,3
1615922442412796,1,-1,-6,-15,41,-13,0,5
1615922442428874,-3,-2,-11,12,21,23,1,-1
1615922442428874,-2,0,31,7,-25,-10,-2,-3
1615922442435863,-2,-2,-26,-11,5,3,-3,-3
1615922442435863,-4,-1,-4,-4,-9,-1,-2,0
1615922442442839,1,3,21,4,-17,-9,-2,0
1615922442442839,0,-2,-8,-6,27,-1,0,-1
1615922442450820,-1,-2,0,0,1,3,-3,-3
1615922442450820,-1,-3,-2,5,-16,4,3,0
1615922442465813,-3,-5,-10,-8,28,-2,-1,-3
1615922442465813,1,-1,-8,1,6,7,1,3
1615922442472760,-5,-5,-9,-7,-16,-15,-1,-5
1615922442472760,0,3,-2,5,-8,7,-1,-3
1615922442488840,-2,-5,0,-3,18,-20,-1,-2
1615922442488840,0,-2,-7,1,-9,3,1,1
1615922442488840,0,-5,-7,-4,40,-10,0,0
1615922442488840,1,-1,-18,-11,-69,-4,-1,-2
1615922442502805,0,2,19,15,28,-5,0,-1
1615922442502805,-3,-1,0,-11,-8,-4,-2,-4
1615922442510784,0,1,15,10,-16,-4,-2,-1
1615922442510784,-4,-4,-8,-6,44,4,-1,-3
1615922442524890,-1,-6,-3,-6,6,9,2,0
1615922442524890,0,1,3,0,-39,-4,0,0
1615922442532967,1,2,2,0,1,-4,-2,-1
1615922442532967,1,0,8,3,1,-1,0,0
1615922442549824,-3,-2,-9,-4,38,5,-2,-4
1615922442549824,-1,1,6,-1,-31,-1,1,0
1615922442550821,-1,-5,-12,-7,-14,-10,-1,-1
1615922442550821,-4,1,20,7,-5,-1,0,-2
1615922442562788,1,3,-14,-6,-29,-5,-3,1
1615922442562788,1,0,2,6,6,3,-2,-1
1615922442570767,1,2,3,2,-1,4,-2,0
1615922442570767,-2,-5,-6,-2,57,0,-2,0
1615922442585838,-3,-5,-4,-13,9,7,0,-3
1615922442585838,-2,4,12,2,-20,-7,-2,-2
1615922442592709,0,-1,-19,-9,-28,2,2,1
1615922442592709,1,-4,-4,13,38,0,-2,-2
1615922442607670,-3,-3,-13,-7,-46,-19,-5,-1
1615922442607670,-4,-3,-3,-1,33,-2,-5,-6
1615922442615647,0,-4,-6,-5,-28,-3,1,2
1615922442615647,1,2,-4,-7,3,-5,-1,3
1615922442622629,-1,-1,2,5,9,12,-1,0
1615922442622629,0,-2,-4,-11,-9,-4,-1,-2
1615922442638695,-4,0,4,14,-6,-3,-1,-3
1615922442638695,1,2,30,3,-7,-2,-2,-4
1615922442645567,2,1,7,-2,-23,-3,1,3
1615922442645567,-4,-4,-15,0,22,4,1,-1
1615922442652649,-2,-2,-3,-4,24,4,0,-3
1615922442652649,-1,-2,-2,1,-5,6,-2,-2
1615922442667509,1,-2,3,4,-1,-5,0,0
1615922442667509,-2,-1,-3,-7,-41,-5,-2,-4
1615922442684518,4,0,6,1,23,-3,0,2
1615922442684518,-1,1,-5,-3,-3,4,-2,-2
1615922442685516,0,-1,-6,-1,-13,2,3,0
1615922442685516,-5,-8,-31,-7,7,2,0,-3
1615922442690502,-1,6,61,20,15,0,-2,0
1615922442690502,0,-2,-8,-10,28,-7,-1,1
1615922442705562,-1,0,0,4,-16,0,-1,-2
1615922442705562,1,-2,0,2,-2,5,-1,1
1615922442712444,2,5,-24,-18,8,2,1,0
1615922442712444,-1,-1,39,21,-36,-2,-1,-3
1615922442728416,-2,3,0,-5,-28,-5,-1,-3
1615922442728416,-1,-6,-12,3,23,11,1,1
1615922442736380,-2,-3,-3,-4,21,2,0,-2
1615922442736380,1,0,-9,-2,7,9,5,1
1615922442742365,1,1,-4,-6,1,-9,-2,-1
1615922442742365,1,2,11,11,18,-7,-2,2
1615922442750347,-2,-2,-7,0,-12,-1,-1,-2
1615922442750347,-2,-1,5,1,-16,-7,0,2
1615922442765303,0,-1,-5,-2,13,4,-1,-2
1615922442765303,1,0,-3,-6,-8,-7,1,1
1615922442773282,-1,-5,-28,-4,13,-3,-2,0
1615922442773282,-1,5,33,9,1,-8,-2,-2
1615922442788391,-2,-3,-22,1,6,-1,-2,-2
1615922442788391,0,-1,2,0,4,0,-1,-2
1615922442796380,-5,-1,4,-2,-60,-10,-5,-3
1615922442796380,-1,-2,-23,-9,30,4,-1,-2
1615922442811316,-1,-1,1,2,-16,-2,-1,-2
1615922442811316,1,2,-12,-5,37,11,0,-1
1615922442812314,2,-3,28,14,-3,12,-3,-1
1615922442812314,-1,-4,-12,-10,-31,-13,-3,-3
1615922442827274,1,1,9,0,-20,0,2,-1
1615922442827274,-2,0,-6,-4,-10,-3,-3,-2
1615922442833411,0,-1,4,4,-29,-6,0,-1
1615922442833411,0,-3,-23,-15,-13,-2,-2,1
1615922442847349,0,-3,36,17,51,9,1,1
1615922442847349,1,7,24,-4,-33,-4,1,-1
1615922442856324,0,-3,-16,0,-27,-23,0,0
1615922442856324,2,5,18,-1,-31,0,-1,3
1615922442871284,-4,-8,-19,-1,1,2,-3,-3
1615922442871284,0,-5,12,0,15,-2,0,1
1615922442872282,0,1,-6,-5,18,-2,-2,-3
1615922442872282,-3,-2,-16,-1,11,11,0,-5
1615922442885251,-3,0,-8,-8,16,-15,-1,1
1615922442885251,0,-3,-2,-1,-10,1,-2,-2
1615922442893227,2,0,-25,-3,52,8,2,2
1615922442893227,-2,-5,0,1,12,-10,-2,-1
1615922442917292,2,2,3,1,-2,3,0,1
1615922442917292,-2,-8,-14,6,40,5,-1,-2
1615922442917292,0,-1,-14,-18,-41,-3,0,0
1615922442917292,2,3,16,4,-23,-8,-1,-4
1615922442931300,-2,-4,-20,-8,30,-6,-1,-1
1615922442931300,-1,-3,1,0,-32,-5,-1,-1
1615922442932298,-1,-3,1,6,17,4,1,-4
1615922442932298,1,0,-9,-4,-6,5,1,3
1615922442945391,1,1,-12,-2,0,-7,0,-1
1615922442945391,1,2,-2,-1,9,-3,-4,0
1615922442953392,-4,-6,-3,-1,-9,9,0,-2
1615922442953392,0,-1,7,-4,24,1,-2,-1
