timestamp,emg1,emg2,emg3,emg4,emg5,emg6,emg7,emg8
1615922431568988,2,2,-8,-8,-8,0,0,1
1615922431568988,3,2,24,10,-2,-3,-1,2
1615922431575969,-5,-5,-23,-13,1,-2,-2,-5
1615922431575969,3,0,-2,4,-4,9,-2,2
1615922431581953,-7,0,-3,4,0,-4,-2,-8
1615922431581953,0,-3,-2,5,4,14,3,2
1615922431597910,-3,-1,-14,-9,-5,-15,-1,-4
1615922431597910,-5,-1,19,-3,-4,2,1,-1
1615922431604893,3,0,10,6,-5,-2,-2,1
1615922431604893,0,-2,-26,-9,10,5,-2,0
1615922431620849,0,0,33,8,2,9,-1,1
1615922431620849,-1,2,-7,-7,-8,0,1,0
1615922431622843,0,-2,-9,3,-2,-4,4,0
1615922431622843,-1,-7,-13,-17,-3,-4,-3,-1
1615922431635809,-5,-6,-4,2,-1,10,-1,-2
1615922431635809,2,0,-6,-2,12,-2,-1,-3
1615922431642790,-3,-1,-5,-4,-3,1,-3,-2
1615922431642790,2,-1,-8,16,-1,10,3,0
1615922431657752,0,4,4,-19,-3,-10,-4,-2
1615922431657752,-1,-3,-18,-3,-4,-3,-2,1
1615922431664761,-5,0,1,-1,-2,2,1,-5
1615922431664761,-1,2,18,-2,2,1,-3,-1
1615922431680689,-2,-3,-5,-1,-2,-1,-1,-4
1615922431680689,-2,0,13,12,-6,-2,-4,-2
1615922431687670,1,-4,-13,-17,-2,-10,-1,1
1615922431687670,-3,-4,-10,1,-8,-9,-1,-3
1615922431695667,1,1,5,6,-1,13,3,5
1615922431695667,-1,-3,-7,-5,-1,-16,-5,-3
1615922431702630,2,4,8,14,4,-4,-2,-2
1615922431702630,-1,-1,3,-16,-7,-4,1,-2
1615922431718587,1,3,5,10,3,0,-2,-1
1615922431718587,-1,-3,-16,-1,1,7,2,2
1615922431732550,5,0,-9,-9,-2,0,1,3
1615922431732550,-5,0,-3,4,5,5,-1,-1
1615922431741546,-4,-1,6,4,0,-8,1,-2
1615922431741546,3,5,5,-14,-6,-9,-3,0
1615922431742528,-2,-2,0,8,-3,-4,-1,-1
1615922431742528,0,-5,0,0,-4,-2,0,-2
1615922431755515,0,-1,-18,-9,2,0,-3,2
1615922431755515,-1,-4,-1,6,-4,6,2,-1
1615922431762472,-2,3,41,7,6,-10,-1,-2
1615922431762472,-2,-3,-8,-3,-3,-6,0,-1
1615922431778449,0,2,10,-7,2,-6,-1,3
1615922431778449,-2,-3,0,-3,2,0,-3,-3
1615922431785409,-2,-5,-21,6,1,3,-4,-2
1615922431785409,0,4,27,-11,0,-2,-1,-1
1615922431801366,2,-3,-9,6,4,4,3,2
1615922431801366,-3,-2,0,-3,3,-10,-6,-4
1615922431802364,0,3,14,14,-3,3,1,1
1615922431802364,-4,-3,-14,-6,4,6,-2,-4
1615922431815328,0,2,0,4,-7,2,0,1
1615922431815328,-3,-2,-5,5,-1,-2,-6,-1
1615922431822334,1,1,0,6,-6,0,-1,-1
1615922431822334,3,8,21,0,-1,-16,-1,2
1615922431838292,-2,-6,-14,-4,-5,-10,-5,-2
1615922431838292,-4,1,12,-5,2,6,3,-1
1615922431845248,-1,-2,10,5,3,-9,-3,-2
1615922431845248,3,-2,-11,-6,-2,3,3,3
1615922431861230,-5,-3,-8,4,3,7,9,-3
1615922431861230,-3,0,12,8,-2,-2,-3,0
1615922431863200,-2,-2,-8,-24,-3,-2,-2,-5
1615922431863200,1,0,-4,3,0,9,1,0
1615922431875169,-2,-2,-3,2,3,-2,-5,-2
1615922431875169,0,-1,4,4,-2,3,3,0
1615922431884145,1,-1,5,-14,0,-4,-1,3
1615922431884145,-7,-4,-17,5,-5,-4,-3,-3
1615922431898132,4,3,13,-2,4,-3,-4,1
1615922431898132,4,4,17,-2,1,-1,0,-2
1615922431912070,-1,-6,-28,2,-1,10,-1,-1
1615922431912070,-2,0,4,-1,3,-2,0,-1
1615922431921046,-2,-2,-7,-5,-5,-7,-4,-4
1615922431921046,3,3,6,2,-1,0,0,1
1615922431923041,-4,-4,-7,-9,-3,-8,3,-3
1615922431923041,0,3,12,9,7,5,-2,-1
1615922431935009,-3,-2,-9,-1,-3,-5,0,-2
1615922431935009,-5,-6,-24,-1,7,6,-1,-4
1615922431943986,-1,3,18,-1,-3,-3,-6,-1
1615922431943986,0,-1,14,-3,-7,-3,-3,-2
1615922431965926,2,4,6,0,-6,3,4,5
1615922431965926,-1,-3,-13,-6,-1,-10,-4,-1
1615922431967921,-1,-4,-7,8,-1,3,-5,-2
1615922431967921,0,-7,-7,-3,0,-1,0,-2
1615922431981884,1,-1,-2,0,2,9,-4,-2
1615922431981884,0,2,-2,-3,-4,-1,4,1
1615922431983878,0,-6,-12,-6,1,-3,1,1
1615922431983878,-2,5,28,5,2,7,1,-1
1615922431994849,-3,-5,-15,5,-4,-3,-2,-3
1615922431994849,1,3,3,6,-6,-3,0,1
1615922432003824,-1,0,-3,-14,2,2,-2,-2
1615922432003824,5,0,-1,-1,-1,-2,3,5
1615922432018785,-2,-3,-9,-5,13,-1,-2,-2
1615922432018785,4,1,12,8,4,-1,-2,1
1615922432024771,-4,1,-13,-1,-8,5,-4,-5
1615922432024771,-2,2,6,5,-3,0,-1,-2
1615922432041725,0,-6,-13,-11,-6,6,0,0
1615922432041725,-6,-3,6,-11,-4,3,1,0
1615922432043723,8,1,3,12,-2,-4,0,0
1615922432043723,2,-3,-15,-10,0,-7,-3,1
1615922432054692,-6,5,14,5,0,-4,-2,-7
1615922432054692,-1,-3,-3,-3,-2,8,2,-2
1615922432063665,-3,-6,-25,-2,-6,-2,9,3
1615922432063665,-3,-1,18,-5,-2,3,-5,-3
1615922432078626,2,0,17,9,-4,3,-1,3
1615922432078626,-3,-4,-14,-7,3,3,3,1
1615922432092587,1,6,6,2,8,-5,2,0
1615922432092587,-3,-4,-11,0,-8,-12,-3,-3
1615922432101588,1,2,8,3,6,-8,0,2
1615922432101588,1,-5,-19,-4,-1,-5,-2,0
1615922432102561,-6,-1,1,4,-3,5,-3,-1
1615922432102561,4,2,12,-3,5,-2,-1,2
1615922432114529,2,1,-7,-11,-6,5,0,-1
1615922432114529,-4,-4,-5,6,1,-11,-7,-6
1615922432123531,-1,-2,-4,-10,-6,-6,-1,-2
1615922432123531,-2,1,-17,6,-1,-2,-1,-3
1615922432138465,6,-2,-5,-1,1,1,-1,0
1615922432138465,-1,1,18,4,-1,1,6,1
1615922432144449,-3,2,-4,-3,3,-8,-5,-2
1615922432144449,-1,-3,-10,7,-6,-8,-4,-3
1615922432160546,-4,-1,5,-2,-3,0,0,-2
1615922432160546,-3,-3,-13,-3,-4,2,-1,-4
1615922432167526,1,4,29,-2,-8,3,1,1
1615922432167526,-3,-3,-7,1,0,9,2,0
1615922432174508,-3,1,-6,2,-5,-10,-5,-2
1615922432174508,1,3,7,-4,-4,2,0,-2
1615922432183484,4,5,8,10,-2,-2,2,6
1615922432183484,-2,-4,-2,-11,3,-11,-4,-2
1615922432198443,-1,-3,-20,-6,0,-11,-2,-2
1615922432198443,0,0,2,4,5,-3,-7,-2
1615922432205497,1,-4,8,11,4,-4,-2,-3
1615922432205497,3,1,-6,-9,3,-11,4,5
1615922432220410,-11,-7,-26,1,1,5,1,-6
1615922432220410,4,11,42,4,-1,1,2,2
1615922432227367,1,-2,-16,2,-3,-4,0,1
1615922432227367,0,-4,-19,-5,-1,17,3,-1
1615922432235445,4,-7,-12,-1,7,-1,-1,0
1615922432235445,-4,-2,1,-1,-1,-3,-5,-3
1615922432244347,-2,-1,1,4,2,4,-2,-2
1615922432244347,1,3,11,-4,-9,2,2,1
1615922432258288,1,1,2,1,-4,7,5,2
1615922432258288,-3,-4,-13,-8,-3,2,0,-1
1615922432265265,2,-1,-3,-4,9,-14,-9,-2
1615922432265265,-10,-10,-22,-1,-2,4,-2,-5
1615922432280226,1,13,23,-7,-9,1,-3,2
1615922432280226,0,1,20,15,-5,-2,2,-3
1615922432295314,3,-4,-24,-16,5,3,-1,3
1615922432295314,-5,0,-6,-3,-3,-4,-3,-3
1615922432296311,-3,-6,3,-7,-8,8,-2,-3
1615922432296311,2,0,-4,13,8,-6,4,4
1615922432304290,-4,-5,-1,6,-2,4,0,-4
1615922432304290,0,2,14,-28,-6,-9,-4,-2
1615922432318400,-1,-7,-29,7,5,1,-2,0
1615922432318400,4,17,54,4,3,1,-1,0
1615922432325365,-1,-2,0,0,-3,12,2,0
1615922432325365,-3,-3,-22,-2,3,-5,0,-4
1615922432340321,1,-2,10,3,-2,2,3,0
1615922432340321,-3,-9,-30,-16,-12,0,-1,0
1615922432347301,1,-1,3,-6,5,3,-2,-3
1615922432347301,4,5,26,19,-6,-1,-3,0
1615922432363259,1,0,9,-1,5,-1,-2,1
1615922432363259,-9,-8,-33,-10,-7,-1,-3,-5
1615922432365254,-4,-1,-3,7,-3,15,4,-1
1615922432365254,3,7,10,7,-1,1,2,1
1615922432378220,1,5,39,4,-1,-2,-5,2
1615922432378220,-2,-9,-21,-14,6,3,-2,-2
1615922432392182,1,1,22,4,-6,-1,4,4
1615922432392182,-5,-4,-22,-6,-3,-2,0,-5
1615922432400161,0,-1,29,-1,-7,-9,-2,1
1615922432400161,0,-1,-14,1,-4,3,-2,-1
1615922432407142,-6,-3,-1,-5,-2,-10,-1,-3
1615922432407142,1,-2,6,-1,-5,7,2,1
1615922432424132,1,-3,-26,9,10,7,0,-2
1615922432424132,-2,5,12,-6,-6,-5,0,0
1615922432425095,0,2,20,6,-3,-3,-4,-2
1615922432425095,1,-7,-10,7,0,2,-3,-1
1615922432438178,-4,-5,-33,-15,2,-1,0,-2
1615922432438178,4,1,15,10,3,-4,-1,0
1615922432446152,1,-6,-32,-18,-2,-2,-8,-2
1615922432446152,-7,0,11,12,9,-3,0,-8
1615922432461111,1,3,15,6,-3,-6,0,-3
1615922432461111,0,-6,-23,-7,14,0,1,1
1615922432467129,-3,1,13,-8,-3,-7,4,-2
1615922432467129,0,-5,-21,11,2,-3,-5,4
1615922432491060,-2,0,18,-12,0,-15,-2,-2
1615922432491060,-2,-1,-8,-6,-6,-4,-1,-3
1615922432493029,0,-1,-15,10,-1,1,2,0
1615922432493029,0,-4,-8,-20,-2,1,0,2
1615922432498012,-2,1,9,10,3,14,5,-1
1615922432498012,-3,-6,-12,-7,0,-5,0,-3
1615922432504996,-3,-1,3,0,-5,-2,1,1
1615922432504996,3,-1,-10,-8,-2,0,-3,2
1615922432520951,-3,2,7,5,8,1,0,-4
1615922432520951,-2,-1,3,8,-4,4,2,1
1615922432527933,-3,-1,1,-6,3,-13,-4,-4
1615922432527933,2,7,21,2,-6,3,1,-3
1615922432543890,0,-5,-21,-8,-5,-8,-3,0
1615922432543890,0,-2,-8,1,-1,3,-3,-3
1615922432545884,-5,-5,-16,4,0,10,3,1
1615922432545884,-1,1,11,-12,-5,5,2,2
1615922432557961,-2,-5,-13,-3,-3,-2,1,-2
1615922432557961,-3,-2,0,3,5,6,-2,-1
1615922432572813,3,2,9,-6,4,-10,-4,-1
1615922432572813,0,-1,-25,-1,-3,-5,4,2
1615922432580791,2,8,36,24,-3,-1,-6,2
1615922432580791,-1,1,12,-12,2,-11,0,-2
1615922432587772,-1,-4,-19,-3,1,7,1,-1
1615922432587772,-5,-1,-2,6,5,-6,-4,-5
1615922432603730,-3,-3,-20,-8,-3,-2,0,-3
1615922432603730,0,-4,5,-7,-9,-4,-1,0
1615922432605724,1,4,16,8,4,-6,0,1
1615922432605724,1,-5,-9,0,-3,-7,-5,-1
1615922432617696,-3,-3,-5,-7,-1,0,3,3
1615922432617696,4,-1,0,8,-1,-1,-2,-3
1615922432624677,-2,-4,-16,-16,1,-3,-4,-4
1615922432624677,0,3,21,7,-2,-4,1,5
1615922432648610,0,2,8,2,-15,-4,0,0
1615922432648610,1,0,-8,15,3,5,-2,0
1615922432650640,1,3,9,-12,4,-1,0,0
1615922432650640,-3,-4,-22,-2,4,-8,-2,-2
1615922432663570,-1,0,14,-2,-5,-6,-1,1
1615922432663570,-1,-1,-5,-4,-4,-5,-2,0
1615922432665565,6,0,9,14,-1,3,-1,1
1615922432665565,-5,-3,-14,-6,-1,0,0,-6
1615922432678531,0,-1,-29,-15,4,6,-1,4
1615922432678531,-2,8,53,31,-2,-10,-3,-3
1615922432684517,0,-1,-22,-6,-2,0,-2,-1
1615922432684517,0,-1,14,9,0,7,2,-2
1615922432700659,-4,-7,-38,-5,-1,-8,-5,-5
1615922432700659,-2,-2,-12,-19,-6,4,1,0
1615922432707552,0,4,17,3,-5,-14,2,4
1615922432707552,-3,0,12,5,-4,6,2,-2
1615922432723493,-1,-2,7,9,14,4,0,-5
1615922432723493,-3,-6,-44,-27,2,-2,-2,1
1615922432725484,5,9,74,23,-5,4,3,3
1615922432725484,1,-3,-7,-14,-1,-1,-4,-1
1615922432738574,-3,-2,-3,0,1,-4,-2,0
1615922432738574,-3,-7,-7,-10,-5,-4,-1,-1
1615922432744560,-6,-7,-28,-9,-2,6,-1,-8
1615922432744560,6,0,10,4,4,4,-2,5
1615922432760518,-5,2,9,-2,-9,-5,-3,-4
1615922432760518,0,-4,-29,-1,3,3,-1,-1
1615922432767499,-2,1,11,12,-5,3,-4,-2
1615922432767499,-2,0,-12,-8,-3,-11,0,0
1615922432783476,5,1,36,6,1,-7,-7,-4
1615922432783476,-3,-4,-22,-1,9,12,3,1
1615922432785451,-3,-1,-22,-4,-8,-3,-1,0
1615922432785451,3,1,4,4,5,2,-5,-3
1615922432798451,2,-4,-21,-14,-6,-2,4,1
1615922432798451,0,2,12,0,-2,-5,0,0
1615922432805398,-6,-5,3,-2,1,8,-1,-4
1615922432805398,-4,-3,-15,-6,-3,5,2,-3
1615922432821379,-3,-3,2,-4,-5,2,2,0
1615922432821379,-1,4,30,9,-2,-6,-3,-3
1615922432827339,-1,-5,-25,-16,7,-8,0,0
1615922432827339,1,2,4,14,2,-5,-3,-2
1615922432851403,-4,0,-14,1,-1,3,1,-3
1615922432851403,-1,-7,-20,-8,-4,-6,-3,-1
1615922432853298,5,4,15,-7,2,1,2,4
1615922432853298,-4,-5,-16,3,-5,-3,-3,-3
1615922432857288,2,3,13,-5,-2,6,1,2
1615922432857288,1,2,37,28,6,-1,0,-1
1615922432866264,-5,-7,-46,-15,-5,-7,-4,-4
1615922432866264,6,7,54,22,5,-1,-2,1
1615922432880227,0,0,-13,-4,-4,2,0,0
1615922432880227,-5,3,-1,-2,-3,1,0,-3
1615922432887207,-2,-1,-5,-2,-1,-6,0,-4
1615922432887207,0,1,-2,-3,-4,-9,-3,2
1615922432903753,4,1,24,4,3,-2,1,2
1615922432903753,-3,-5,-14,-11,-3,0,-2,-2
1615922432905748,-4,-4,-24,-2,-2,5,1,-1
1615922432905748,0,4,9,7,2,-11,-3,-2
1615922432926692,-2,3,25,7,-3,1,2,3
1615922432926692,4,-5,-16,-13,1,-5,-4,0
1615922432927689,-4,-7,-14,-1,-4,1,-2,-5
1615922432927689,-3,-1,14,-3,-3,1,0,0
1615922432940679,4,0,-5,1,-2,5,-1,1
1615922432940679,-4,1,-1,-3,1,-4,-1,-4
1615922432954621,-3,-1,-3,-4,21,-3,-5,-2
1615922432954621,0,-4,-15,-3,-5,1,-2,-4
1615922432963617,-1,-2,-1,-2,-4,0,-2,-3
1615922432963617,-3,-6,-18,-7,-10,9,5,0
1615922432965612,7,1,17,11,-2,2,1,7
1615922432965612,-8,4,25,4,0,3,2,-3
1615922432977580,0,-3,-17,5,-1,-5,-3,-2
1615922432977580,-4,-4,-12,-7,-3,4,-1,0
1615922432986551,2,-2,-7,1,-5,-5,0,1
1615922432986551,0,2,0,-7,9,7,2,-1
1615922433000497,-2,-5,-22,-6,-7,-2,4,0
1615922433000497,1,6,41,8,-3,-3,-2,0
1615922433007477,-3,-1,-5,-4,-12,13,4,0
1615922433007477,0,0,14,-1,1,1,1,0
1615922433023433,0,-7,-32,-11,5,-11,-4,-2
1615922433023433,5,5,15,-4,0,-6,-2,4
1615922433025427,-8,4,17,9,-7,4,-1,-6
1615922433025427,-2,-9,-26,-14,-7,4,0,-2
1615922433037396,-3,0,-3,-5,4,7,1,-2
1615922433037396,5,2,2,5,0,-5,-1,3
1615922433054427,0,-1,1,1,2,-10,-4,-1
1615922433054427,0,-3,-9,1,0,12,2,0
1615922433060413,0,-2,-6,6,3,-3,0,1
1615922433060413,-2,1,-1,5,-2,-4,-5,-3
1615922433067418,2,9,32,5,9,-13,0,-1
1615922433067418,-1,-1,-6,-6,-2,-2,0,3
1615922433084354,6,-3,1,-5,-6,1,-1,1
1615922433084354,-11,-6,-27,1,-1,-3,-3,-7
1615922433085346,-2,-5,-1,4,3,6,2,0
1615922433085346,-2,5,12,7,-2,-7,-1,0
1615922433097838,1,4,20,-1,1,-3,-2,-1
1615922433097838,-2,-9,-32,-10,0,-1,0,0
1615922433106814,5,3,25,18,-4,9,-2,2
1615922433106814,-3,-4,-10,-8,-2,-5,-4,-7
1615922433128889,1,0,5,9,-5,12,6,10
1615922433128889,1,3,-3,-7,2,3,1,-1
1615922433130910,-1,-5,-26,-9,-18,-1,-3,-2
1615922433130910,0,-4,-1,-7,13,-9,-8,-4
1615922433142851,-6,0,19,6,5,11,-2,-5
1615922433142851,5,2,10,4,-1,2,0,3
1615922433150015,-4,-3,-16,-6,-1,-3,-3,-2
1615922433150015,-3,-2,-10,-7,-9,0,3,0
1615922433157964,1,-7,-19,-7,1,-5,0,-2
1615922433157964,-4,5,30,10,5,2,-1,-2
1615922433166940,1,1,3,-12,1,1,1,0
1615922433166940,-3,-5,-17,-16,-1,-5,-3,-2
1615922433180902,0,0,-11,-10,0,-4,-3,-2
1615922433180902,0,1,9,6,3,-7,-3,1
1615922433187883,-1,-4,-16,6,2,-2,-2,1
1615922433187883,-2,-1,16,-1,-10,-5,-1,-2
1615922433203844,-1,1,2,0,-9,-5,-7,-3
1615922433203844,1,-5,-29,-12,-9,5,-1,-2
1615922433209866,3,5,30,6,-2,-2,-10,-2
1615922433209866,1,-4,-10,-1,7,1,-1,2
1615922433217911,0,-2,-10,0,-5,-1,0,2
1615922433217911,-8,-1,-5,2,-1,-1,1,-3
1615922433226779,3,-6,2,-13,6,2,3,-2
1615922433226779,3,2,4,1,-4,7,6,-1
1615922433240763,-1,2,17,11,4,-12,-8,0
1615922433240763,4,-2,-26,-11,-2,-4,3,3
1615922433247726,-4,1,22,5,-7,6,2,-1
1615922433247726,0,-1,1,15,15,-10,-2,-2
1615922433263681,-4,3,3,-8,-4,-8,-5,-4
1615922433263681,-1,-3,6,6,0,2,0,-2
1615922433269685,-3,-4,-17,-13,-4,-2,-1,0
1615922433269685,-1,-4,-19,-1,-9,4,1,2
1615922433286619,8,2,21,1,8,-13,-3,3
1615922433286619,-12,-4,-3,0,-2,-1,-3,-8
1615922433287616,-4,2,7,-1,-1,-4,1,-2
1615922433287616,7,-1,-23,-2,-4,-2,-1,-1
1615922433301055,-5,-6,-30,-8,-5,-1,-1,-5
1615922433301055,3,3,25,1,-1,-2,-3,0
1615922433307039,-3,-4,-11,1,1,-6,-3,-2
1615922433307039,-4,1,1,-6,-5,-13,-8,-2
1615922433322972,-1,2,6,2,-3,9,4,1
1615922433322972,-2,-7,-26,-12,15,0,3,0
1615922433329958,0,-2,6,4,8,-18,-10,-1
1615922433329958,4,7,-5,5,-3,4,3,1
1615922433345911,1,-2,-9,-10,-2,5,4,-1
1615922433345911,-11,-1,9,10,-5,-4,-1,-4
1615922433347905,4,-3,-8,-13,1,5,7,5
1615922433347905,-5,-6,-14,-4,1,-2,-5,-5
1615922433360871,-2,4,16,19,3,-9,0,1
1615922433360871,9,3,8,-1,1,6,3,1
1615922433367876,-2,2,-13,1,3,-5,-4,-2
1615922433367876,-3,1,11,-8,-2,2,0,-2
1615922433382816,-7,-6,0,6,-5,1,-2,-6
1615922433382816,6,3,-7,-7,-9,-7,-2,6
1615922433397019,-4,-5,-17,-1,9,4,3,-3
1615922433397019,1,-1,19,8,-4,3,2,1
1615922433405990,-10,-10,-12,-9,3,0,-3,-7
1615922433405990,5,7,6,7,-1,10,1,5
1615922433407987,-4,1,4,-8,-3,-11,1,-2
1615922433407987,0,-3,3,4,-3,-1,0,3
1615922433420950,-2,-5,-11,0,-1,2,1,-1
1615922433420950,-5,-8,3,-17,-5,2,-2,-4
1615922433427958,0,10,3,9,-8,-1,1,2
1615922433427958,3,-2,6,1,1,0,-2,-5
1615922433442915,-1,-1,-24,-8,-4,5,-1,0
1615922433442915,-1,-3,12,4,8,4,0,-1
1615922433449872,3,-2,8,8,-4,5,3,4
1615922433449872,-3,-2,-5,-4,-7,-6,-3,-1
1615922433465829,5,4,10,-3,0,10,3,1
1615922433465829,-3,0,-4,0,-6,-9,1,-4
1615922433467824,3,-1,14,-5,-2,-4,-10,-3
1615922433467824,-6,-4,-1,1,-3,7,5,-3
1615922433480793,1,3,8,7,2,-2,-4,-1
1615922433480793,1,4,19,-3,-4,5,-3,0
1615922433487770,-4,-2,-11,-2,-3,11,3,0
1615922433487770,-3,-6,-29,-17,0,0,-2,-2
1615922433503000,-2,2,15,7,-4,-6,-3,0
1615922433503000,-3,1,3,10,9,4,2,-5
1615922433509982,-3,-4,-15,0,7,-1,-5,-5
1615922433509982,3,1,16,-7,-6,-9,-3,2
1615922433525939,-3,2,-5,-10,0,0,0,-3
1615922433525939,-2,-3,-11,7,-4,-2,1,-1
1615922433527934,-2,-5,-18,-7,-3,8,3,-2
1615922433527934,-2,-2,-1,8,5,0,-1,0
1615922433541041,2,1,16,-2,-1,-2,3,0
1615922433541041,-1,-4,-24,-9,-6,-5,-2,-1
1615922433547055,1,0,9,10,-1,0,-1,-2
1615922433547055,-1,-1,-9,-13,-6,15,-5,-2
1615922433562986,2,1,15,6,3,-8,-2,1
1615922433562986,-3,-4,-7,0,-2,-7,0,2
1615922433569991,-4,-1,-6,1,-6,1,1,1
1615922433569991,7,7,20,1,2,2,2,2
1615922433585996,-4,-3,-27,-6,-4,-3,-4,-6
1615922433585996,2,0,14,3,-6,-6,-3,3
1615922433587918,2,2,15,-6,4,-6,0,0
1615922433587918,-3,-3,-13,2,-4,-7,0,1
1615922433600927,-6,-3,-15,-1,2,-5,-7,-9
1615922433600927,4,8,32,4,-3,-4,2,3
1615922433607874,2,-3,-26,-11,-3,5,1,1
1615922433607874,2,5,29,13,-3,-1,0,2
1615922433622833,-3,-2,-2,4,1,-2,-1,-1
1615922433622833,-2,-5,-20,-9,1,3,-4,-1
1615922433629835,-3,-2,-7,-12,-12,1,-1,-4
1615922433629835,-2,1,14,7,1,6,0,-3
1615922433646769,1,-4,8,1,2,3,1,1
1615922433646769,-1,-4,-10,-11,0,0,1,0
1615922433647767,0,-3,-2,6,1,-7,1,0
1615922433647767,-2,0,-15,-1,0,-5,-3,-5
1615922433660760,-3,0,6,-3,-1,3,-2,-3
1615922433660760,8,1,2,-3,-1,-3,1,2
1615922433667741,-6,-2,-5,-1,-3,-2,-2,-3
1615922433667741,-3,-2,-16,5,4,0,-2,2
1615922433683687,3,1,19,3,1,1,1,1
1615922433683687,-2,-4,-22,-8,3,-1,-3,-3
1615922433689681,2,0,8,-3,-4,-8,-4,0
1615922433689681,-2,-4,-15,-9,-3,-1,-1,-4
1615922433705851,-1,0,25,11,-13,0,2,2
1615922433705851,2,-2,-1,4,3,-3,-3,0
1615922433707847,-8,0,7,0,-7,15,-2,-6
1615922433707847,-4,-3,0,2,0,7,2,-1
1615922433728790,10,1,-5,-25,-7,1,0,3
1615922433728790,-7,-7,-17,9,-7,-6,-7,-5
1615922433730785,5,7,18,12,7,-5,3,4
1615922433730785,-1,0,-10,1,5,-15,-3,0
1615922433750757,0,-2,-8,3,2,-6,-3,1
1615922433750757,-7,-5,-20,-25,-1,8,2,-4
1615922433757713,2,1,10,15,0,0,2,-1
1615922433757713,-1,-2,0,-1,-5,-1,2,-2
1615922433766689,-1,-3,-23,-7,3,6,2,1
1615922433766689,-1,2,23,9,9,0,-2,2
1615922433767686,-3,-5,-15,-12,-6,1,1,-1
1615922433767686,3,1,17,1,-2,-11,-4,4
1615922433779654,-5,-2,-15,-1,-4,-5,-2,-4
1615922433779654,-5,1,-15,5,-5,-1,-3,-6
1615922433788633,2,-2,-4,-1,10,-5,-1,6
1615922433788633,2,-3,-34,-12,-4,3,-4,-7
1615922433803103,-2,6,46,15,5,-5,2,1
1615922433803103,0,-4,-5,-2,-4,-6,-2,-1
1615922433810082,0,-4,-18,-1,-4,-4,-3,-2
1615922433810082,-5,-3,1,-2,2,-10,-3,-2
1615922433826037,-3,-4,-14,4,-7,-15,-4,-3
1615922433826037,1,1,13,-13,4,11,4,-1
1615922433833021,1,2,19,-9,-8,0,-3,-4
1615922433833021,0,-5,-9,-6,-2,8,2,4
1615922433840000,2,-3,-18,-3,2,3,0,1
1615922433840000,-7,-6,-11,0,-1,-11,-3,-4
1615922433848976,-2,2,12,-1,0,-2,0,1
1615922433848976,-5,-2,-1,-7,0,13,2,-1
1615922433862938,1,4,-6,-3,3,-6,-5,0
1615922433862938,0,-3,-8,-3,-7,-6,0,-2
1615922433869920,-2,-6,-22,0,6,-10,-2,0
1615922433869920,4,9,29,10,-6,-7,-3,1
1615922433886877,-9,-8,-3,4,12,0,-1,-7
1615922433886877,0,6,24,-7,-3,0,-2,-1
1615922433887874,0,-2,-25,-4,-3,6,4,0
1615922433887874,2,4,24,13,13,5,0,0
1615922433900350,5,-6,-25,-16,-3,2,0,1
1615922433900350,-7,0,8,9,0,-3,-3,-6
1615922433909326,-2,2,5,-5,2,5,5,-2
1615922433909326,-2,-4,-22,-13,3,1,0,-2
1615922433923288,1,-1,7,1,-2,-3,-3,-1
1615922433923288,1,-1,6,8,-2,10,2,4
1615922433930271,2,3,0,6,-1,3,-2,-1
1615922433930271,1,1,0,-17,-4,-3,0,4
1615922433945229,-1,-3,-10,-6,-5,-2,0,-5
1615922433945229,3,-5,-18,-4,-4,-1,-1,0
1615922433954208,-10,-2,15,6,-7,1,0,-3
1615922433954208,5,-4,-13,3,4,2,-1,-2
1615922433960194,-7,-5,-15,-10,-12,2,-3,-2
1615922433960194,4,6,25,14,1,0,-3,1
1615922433969169,7,0,-6,-4,-2,-3,-3,1
1615922433969169,-6,2,11,8,11,1,0,-4
1615922433983128,0,-3,-23,-23,-4,3,1,2
1615922433983128,4,8,50,19,0,-10,2,4
1615922433990109,1,-2,-7,-5,3,1,-5,0
1615922433990109,1,-3,-4,2,-8,-8,2,2
1615922434006067,-7,2,6,7,4,0,-3,-8
1615922434006067,2,0,-6,-14,2,-1,6,4
1615922434008062,-3,-1,-2,-1,3,-4,0,-1
1615922434008062,-2,1,15,4,9,2,1,-2
1615922434020029,0,-4,-11,-2,-5,2,3,1
1615922434020029,1,0,-6,0,1,-5,-4,-1
1615922434036984,0,-1,7,2,1,1,-1,-2
1615922434036984,-1,-6,-23,5,-8,-2,-2,0
1615922434042968,-4,-2,3,-6,-3,2,0,-2
1615922434042968,-5,-5,-5,-6,1,6,0,-4
1615922434049951,4,2,4,0,-1,-5,2,1
1615922434049951,-2,-6,-25,-12,-6,-3,-2,1
1615922434065906,3,10,64,15,0,1,-2,2
1615922434065906,5,0,-18,3,-6,-4,-1,1
1615922434080869,-9,-10,-14,-5,-4,-4,-10,-6
1615922434080869,0,4,-5,-17,-12,-5,-1,-2
1615922434081864,0,4,27,19,10,0,0,2
1615922434081864,-3,-6,-20,-7,-5,1,-4,-2
1615922434088848,0,1,9,8,-5,-1,0,-3
1615922434088848,-1,-3,3,0,1,0,-4,-2
1615922434102810,2,0,-26,3,3,-8,-4,0
1615922434102810,-7,5,12,-1,-6,-4,0,-1
1615922434109791,8,-1,-5,-1,1,-3,-5,-3
1615922434109791,-4,-3,0,-1,0,2,3,-3
1615922434133725,3,-3,-8,1,-3,-9,5,5
1615922434133725,0,-5,-20,-3,2,-2,-4,0
1615922434135720,0,4,25,3,-7,2,3,3
1615922434135720,-1,2,2,-4,-2,-16,-6,-4
1615922434139710,-2,-2,-7,0,3,-7,-5,-2
1615922434139710,1,-6,-23,-15,-2,-1,-1,1
1615922434148685,-8,-2,8,-2,-3,0,-1,-5
1615922434148685,3,4,27,19,-4,8,5,1
1615922434163645,-10,-5,-7,-10,-1,9,0,-6
1615922434163645,1,0,4,11,-1,-3,4,5
1615922434169629,0,-4,-29,-11,11,-3,-4,-1
1615922434169629,0,6,33,13,6,5,1,1
1615922434185591,2,1,-11,-9,-6,-5,-4,1
1615922434185591,-4,-8,-19,-11,-2,0,1,-5
1615922434192571,2,-4,6,12,-2,2,4,5
1615922434192571,-2,6,12,-7,2,2,0,-3
1615922434200549,-1,-4,-17,2,-11,-3,-2,-2
1615922434200549,-2,2,8,1,10,-3,-3,-2
1615922434209524,-3,-2,-1,-9,-4,8,3,2
1615922434209524,-2,-4,-10,2,-5,-3,-2,-2
1615922434223486,6,3,-3,-9,5,-9,5,6
1615922434223486,-6,-6,-14,-14,-11,-1,1,-7
1615922434230467,-1,0,-15,1,0,0,-4,0
1615922434230467,-2,-6,-10,-2,-2,1,3,1
1615922434245427,0,-5,-16,-2,-1,2,-3,-3
1615922434245427,4,1,17,-3,2,3,3,3
1615922434252410,-3,-2,-4,-14,0,-6,0,-1
1615922434252410,-2,-4,1,3,-8,-1,-4,-3
1615922434269362,-2,1,-2,-2,-4,7,-1,-1
1615922434269362,2,1,8,1,1,6,1,3
1615922434271358,-2,5,26,6,-1,-4,-1,-2
1615922434271358,-2,-5,-15,-15,8,-2,-2,0
1615922434283325,0,-4,13,14,-6,8,2,-1
1615922434283325,-3,3,-13,-1,-5,-12,-6,-4
1615922434290307,-1,-5,-15,-3,1,-4,-1,-1
1615922434290307,0,0,4,4,1,8,0,-2
1615922434305267,1,1,6,-16,-8,12,1,1
1615922434305267,-3,-1,27,23,-4,1,-4,-2
1615922434312248,-1,-1,-5,-7,-6,0,-1,-1
1615922434312248,-3,-2,-17,-2,-1,-7,-5,-3
1615922434329203,-2,-3,-8,-15,-3,-4,-1,-1
1615922434329203,4,-1,5,9,1,0,0,0
1615922434330262,-2,-2,-5,-1,1,-2,1,-2
1615922434330262,-3,-1,0,2,8,2,-4,-4
1615922434343190,-1,-1,-6,6,5,-2,0,-1
1615922434343190,0,1,0,-13,4,-5,-4,-2
1615922434358130,3,0,2,9,-4,0,2,1
1615922434358130,-2,-3,4,-1,-3,-4,0,-1
1615922434366106,-3,-1,-8,0,0,-9,-2,0
1615922434366106,1,5,29,27,-1,-6,-2,1
1615922434372114,-2,-3,-5,-9,0,1,-3,-5
1615922434372114,1,-1,-17,-17,-6,-9,0,4
1615922434389043,-2,2,9,12,1,4,0,-5
1615922434389043,-2,-5,-19,-5,-2,-4,-5,-3
1615922434390040,-3,4,20,5,13,-12,-4,-3
1615922434390040,3,-4,-19,1,-7,1,2,5
1615922434410984,-7,8,35,-5,-7,-6,-3,-6
1615922434410984,2,-3,3,-5,-1,6,0,1
1615922434412978,0,0,-14,7,-2,3,2,-2
1615922434412978,-1,-1,-12,6,4,0,-2,-3
1615922434425945,5,3,28,-7,0,-10,-2,1
1615922434425945,-3,1,-15,-4,3,-3,-2,-5
1615922434432952,0,-3,-1,-1,-2,-3,-1,5
1615922434432952,1,0,4,2,3,4,-5,0
1615922434449882,0,-6,-24,-3,3,-2,-2,-1
1615922434449882,-4,1,3,0,4,2,1,-3
1615922434450881,1,-4,-17,-6,-5,-10,-5,-1
1615922434450881,-1,2,16,-6,-7,-2,1,-2
1615922434463846,0,-1,0,7,4,8,-3,0
1615922434463846,-4,-9,-29,-5,1,1,1,-1
1615922434469831,2,4,18,4,-6,0,5,2
1615922434469831,-5,-3,-11,-7,-5,-2,-6,-5
1615922434485784,-3,-4,12,7,-1,-12,0,-5
1615922434485784,1,-1,-2,-3,-7,-2,3,2
1615922434492767,-3,1,-7,-10,-1,8,4,0
1615922434492767,0,0,13,4,-3,-3,-1,0
1615922434508723,0,-3,-15,-11,1,2,0,2
1615922434508723,-1,-4,5,13,0,12,-3,-2
1615922434514707,-2,0,-13,-16,-4,0,0,-1
1615922434514707,-2,5,19,8,9,11,0,-1
1615922434523685,2,-3,-12,-3,-7,-3,4,4
1615922434523685,1,0,0,-13,-2,-2,-3,1
1615922434529667,-9,-5,-5,12,-6,9,0,-7
1615922434529667,-1,-6,-6,-27,2,-10,-1,-3
1615922434545627,5,4,8,10,0,3,0,3
1615922434545627,-11,-6,-23,-6,0,1,-1,-6
1615922434552607,-1,3,18,3,-3,-7,-4,0
1615922434552607,5,-1,-20,4,3,-5,0,-2
1615922434568563,-6,-5,13,-2,3,2,-2,-2
1615922434568563,7,10,7,3,-2,5,4,2
1615922434570558,-3,-3,-10,-4,2,-5,-6,-2
1615922434570558,-3,-4,-4,0,-5,-4,1,-1
1615922434591503,-3,-5,1,15,0,-1,-1,-4
1615922434591503,1,3,4,-4,-4,-8,2,1
1615922434593498,1,2,9,-12,2,-9,-2,-1
1615922434593498,0,-6,-16,5,6,7,1,3
1615922434605464,2,-1,-5,2,-7,4,1,1
1615922434605464,3,-1,-7,4,-3,0,2,2
1615922434612445,-4,-1,1,-5,4,4,2,-1
1615922434612445,-2,2,-8,-4,-7,-4,0,0
1615922434629400,-1,0,9,1,0,3,-1,1
1615922434629400,-5,-7,-1,-4,0,3,-1,-3
1615922434630398,4,-5,-15,-3,1,2,0,0
1615922434630398,-1,3,15,4,-2,-1,-1,0
1615922434643363,-3,3,-10,-3,4,-7,-6,0
1615922434643363,-3,-4,-17,-10,-4,4,3,-1
1615922434650490,1,-3,17,1,1,3,1,-1
1615922434650490,-2,0,-9,-14,-6,1,1,1
1615922434666339,2,2,22,16,4,-1,-1,0
1615922434666339,1,-3,-17,-6,-9,-18,-6,2
1615922434672352,-8,-2,-8,-2,9,-1,-4,-6
1615922434672352,5,0,-2,-2,-2,-2,1,5
1615922434696415,-6,-5,-30,-15,8,-25,-1,-4
1615922434696415,2,3,28,11,1,9,3,1
1615922434698411,-2,-4,-6,5,-5,-3,0,-1
1615922434698411,-1,-4,-7,-2,-4,-3,-2,-1
1615922434703397,-1,4,10,2,-4,-1,-2,0
1615922434703397,4,0,21,1,0,17,1,-3
1615922434710379,2,-1,-12,1,0,-5,0,-1
1615922434710379,-5,-3,4,-2,-10,2,0,-3
1615922434725339,2,1,-8,-4,-8,-1,0,1
1615922434725339,-7,-2,-5,0,9,-6,-5,-3
1615922434732344,-2,-2,12,5,-7,7,-2,-2
1615922434732344,-1,2,1,7,4,-16,1,1
1615922434749301,0,0,14,-1,-2,14,2,-1
1615922434749301,6,0,-15,-2,-16,-4,0,2
1615922434750271,-12,-2,1,-3,2,1,-3,-10
1615922434750271,-4,-1,0,8,2,7,-1,0
1615922434762362,-3,-4,-17,-11,-6,1,0,-2
1615922434762362,-1,1,14,4,1,3,-2,0
1615922434772336,6,-4,-14,-2,0,2,3,5
1615922434772336,-1,1,16,5,-3,-3,-3,-6
1615922434793506,-2,-3,-21,1,0,3,-2,0
1615922434793506,2,4,7,-8,-3,3,2,-2
1615922434795500,-3,-4,-16,0,-1,-10,-5,0
1615922434795500,2,4,20,2,3,8,1,-1
1615922434808466,0,-3,-24,-5,0,1,-2,0
1615922434808466,-9,0,27,2,9,-13,-4,-7
1615922434810461,4,1,13,-3,-5,-2,1,4
1615922434810461,-1,-2,-5,12,-8,8,-5,-5
1615922434822712,3,-3,-4,-4,1,8,1,3
1615922434822712,-2,0,-15,-10,-13,-2,-4,-3
1615922434831583,0,1,6,4,2,-1,2,-1
1615922434831583,0,-2,-4,2,-2,-5,-1,2
1615922434845561,1,2,2,-14,-4,-4,1,-1
1615922434845561,-5,-6,-23,5,1,-13,0,1
1615922434852751,2,2,9,-11,-4,1,-1,0
1615922434852751,0,3,8,6,1,1,2,-1
1615922434868605,4,1,4,7,-12,-5,-4,-2
1615922434868605,-2,-2,-17,-15,6,0,0,2
1615922434870600,0,2,8,15,-1,-8,-3,-4
1615922434870600,-3,-5,0,-13,-2,-3,-1,-1
1615922434882571,1,3,9,-6,0,-4,0,-1
1615922434882571,-2,-1,12,14,-1,-1,-3,1
1615922434891542,-2,-1,-13,-8,1,1,1,0
1615922434891542,-2,-9,-28,-19,-2,-1,-4,-2
1615922434905506,1,3,37,16,2,-4,-3,-1
1615922434905506,2,-2,0,-8,3,11,8,-1
1615922434913484,-2,-3,-20,-1,-4,-18,-6,1
1615922434913484,-3,0,-3,5,-2,-4,-3,-2
1615922434929455,4,0,3,-11,12,-1,-4,5
1615922434929455,-6,1,-1,7,-3,-3,1,-4
1615922434930439,-4,-5,-4,3,-5,4,1,-2
1615922434930439,1,8,-7,-4,-5,-2,0,3
1615922434943405,-4,-2,-8,-5,-2,-4,-2,-3
1615922434943405,6,0,-5,10,1,0,-3,3
1615922434951383,-6,-3,5,-7,4,-1,-2,-3
1615922434951383,-1,1,4,-2,-3,1,1,-1
1615922434965419,-4,-6,-21,-3,8,-6,0,-2
1615922434965419,3,5,18,-1,5,-7,-4,0
1615922434972400,0,1,6,4,-3,1,-1,-1
1615922434972400,-3,-5,-3,1,13,-9,-4,-5
1615922434988618,-4,-3,1,-18,-5,4,2,-1
1615922434988618,2,-3,-15,4,-9,-5,0,1
1615922434990614,-3,4,19,8,2,-4,-2,0
1615922434990614,-3,1,1,-5,-3,8,1,-2
1615922435002607,5,-6,-26,0,6,-3,-2,-3
1615922435002607,2,-5,-3,-6,2,-2,-2,1
1615922435011559,-2,2,17,4,-3,2,1,-1
1615922435011559,-2,0,-11,1,-4,3,1,-1
1615922435025587,-2,-2,1,3,-2,7,1,1
1615922435025587,3,4,-6,-7,-4,-3,-4,2
1615922435032573,2,-3,-3,-4,0,4,5,-1
1615922435032573,-1,-4,-3,3,6,-13,-6,-1
1615922435048506,1,1,-4,-1,-5,-8,-4,-3
1615922435048506,-2,0,6,-5,1,-2,-3,-3
1615922435063466,0,-2,-19,2,-6,2,3,1
1615922435063466,-1,2,30,4,-7,3,0,1
1615922435064490,1,-3,3,2,6,-10,-2,0
1615922435064490,-9,-10,-33,2,9,-8,-3,-5
1615922435071443,3,5,26,-6,-2,3,0,3
1615922435071443,3,0,-9,6,-6,-5,-2,-1
1615922435085430,-3,0,-4,-4,0,6,0,1
1615922435085430,-3,4,35,8,-2,-2,-3,-2
1615922435092387,0,0,-4,-9,-3,-6,-5,-2
1615922435092387,1,-1,-2,3,2,5,0,-1
1615922435108373,2,4,13,8,-5,1,-1,0
1615922435108373,-5,-5,-17,-7,10,7,-2,-4
1615922435115326,0,-2,-4,0,0,-7,0,0
1615922435115326,1,5,25,-3,-3,-6,-2,0
1615922435122312,-5,-6,-23,-5,-5,2,2,-4
1615922435122312,0,-2,27,7,-6,-19,0,0
1615922435131298,0,-2,-19,-16,4,0,-5,-1
1615922435131298,3,-3,-8,-14,-3,4,3,0
1615922435146243,-2,-4,-5,12,0,4,0,-2
1615922435146243,2,3,14,-12,-5,2,3,3
1615922435152227,-2,-4,-21,6,1,1,-3,-2
1615922435152227,-4,-2,-21,-3,4,-2,-3,-1
1615922435168209,-4,2,13,-1,-3,6,0,-2
1615922435168209,3,-2,-19,-3,-3,10,0,1
1615922435175166,2,-1,19,2,-1,0,-1,2
1615922435175166,-6,-3,-12,-4,6,-6,-4,-4
1615922435191123,-1,0,-10,5,-7,-8,0,-1
1615922435191123,-5,-2,10,0,12,-3,0,-3
1615922435197134,6,3,-19,-14,0,3,4,6
1615922435197134,-5,-3,29,22,0,-10,-1,-4
1615922435206083,4,2,6,-4,-3,2,2,5
1615922435206083,2,0,4,2,0,-3,-4,-3
1615922435212067,-4,-4,-13,-3,-2,-3,-5,-5
1615922435212067,1,-3,-12,-5,-3,7,-1,1
1615922435228025,-4,0,-1,-4,-2,0,-3,-4
1615922435228025,-3,-5,-7,-4,-8,4,0,-1
1615922435242126,-2,1,9,11,3,1,-2,-4
1615922435242126,1,2,-14,-4,-4,-3,-2,1
1615922435251201,-1,0,3,-8,-6,-4,-3,-1
1615922435251201,-3,-3,-15,-12,-3,4,5,1
1615922435253097,0,-3,-3,9,-11,-6,0,0
1615922435253097,-4,-3,12,-8,9,-4,1,-3
1615922435266239,-2,-2,-3,-11,-12,9,-1,-3
1615922435266239,1,0,15,7,-6,3,-1,-2
1615922435272196,-3,-2,-11,1,-3,-1,-3,-1
1615922435272196,0,-4,-6,-7,-8,6,1,-1
1615922435288177,0,-2,-5,6,1,2,0,-2
1615922435288177,-5,-5,-24,-10,0,0,-3,-1
1615922435295159,1,4,38,7,1,0,-1,-2
1615922435295159,1,-5,-23,-4,-3,8,0,-3
1615922435311124,1,-1,1,-4,7,-8,-1,0
1615922435311124,0,3,-6,-7,-6,-10,-9,-5
1615922435313119,3,-3,15,-1,2,3,2,6
1615922435313119,-5,-1,-6,3,-4,6,1,-1
1615922435326108,-2,0,10,13,-2,-6,-3,-3
1615922435326108,2,2,-11,-5,-1,1,1,-1
1615922435333066,-1,-6,-17,-8,-3,2,1,-2
1615922435333066,1,-3,-3,0,3,-9,-7,0
1615922435348154,-2,2,21,3,0,1,1,-2
1615922435348154,-1,-3,-11,4,-2,-11,-1,1
1615922435355168,-6,1,14,-1,3,2,0,-5
1615922435355168,-2,-3,-7,0,-11,6,5,-1
1615922435371123,-4,-5,-28,-12,4,2,-4,-2
1615922435371123,0,4,26,10,-2,-6,-1,2
1615922435373094,-1,0,-11,-9,2,0,-1,-2
1615922435373094,1,4,18,5,-1,-8,-1,1
1615922435385059,-3,-8,-17,0,0,4,0,1
1615922435385059,3,-1,-4,-4,3,3,-2,-6
1615922435394034,-3,-3,-11,5,-5,-1,-1,-1
1615922435394034,-1,4,9,-1,-2,-5,-2,-3
1615922435408994,-1,3,12,6,1,-3,-2,0
1615922435408994,-2,-2,-12,-9,3,3,2,1
1615922435414977,1,-2,-8,-2,-2,-1,-1,-2
1615922435414977,1,2,3,-4,-2,-4,0,1
1615922435431932,1,-2,-10,-3,16,0,-3,-1
1615922435431932,-2,-4,-1,9,-4,0,3,1
1615922435432930,2,0,-16,-14,-2,-7,-3,0
1615922435432930,-4,-3,-5,11,1,-4,-3,-5
1615922435445997,4,1,13,-3,6,-13,-4,3
1615922435445997,1,-6,-23,-2,-2,0,-4,0
1615922435453089,-5,-1,28,2,-1,3,-3,-5
1615922435453089,0,-4,-17,1,2,-6,1,1
1615922435467941,-3,0,1,-8,-4,-1,1,0
1615922435467941,3,3,-4,14,-1,1,-2,-3
1615922435474922,1,1,3,-2,-7,-1,6,2
1615922435474922,-2,-3,10,-5,-6,13,-2,-3
1615922435490899,-3,1,24,2,-4,-3,-1,-4
1615922435490899,-1,-3,-20,-1,-4,-3,-1,-1
1615922435497885,1,0,7,-9,-9,-1,4,3
1615922435497885,3,-4,-6,-4,-2,2,0,0
1615922435505861,-8,-6,-14,0,-2,5,2,-5
1615922435505861,-5,0,12,-8,-1,-5,-3,-3
1615922435512848,-1,-2,-11,8,4,0,-3,-2
1615922435512848,-2,1,-4,-9,6,-16,-1,2
1615922435527805,5,-1,4,-4,-12,-7,-3,3
1615922435527805,1,0,4,10,5,4,5,1
1615922435535760,-5,-3,4,3,7,-8,1,-5
1615922435535760,2,2,9,-9,-1,-9,-3,1
1615922435550958,-2,-3,-11,-1,7,12,3,-2
1615922435550958,-2,-1,-3,-11,-12,7,-2,-1
1615922435551846,2,-1,-12,15,9,-1,-5,0
1615922435551846,-3,0,22,-13,-9,0,-2,0
1615922435566808,2,0,-17,2,-5,-7,-4,-1
1615922435566808,-6,-4,1,-1,-3,-1,-1,-3
1615922435572791,2,2,-5,5,-1,2,-2,1
1615922435572791,-7,-3,2,-2,1,0,-2,-4
1615922435595753,0,5,-5,4,-3,1,-1,-1
1615922435595753,0,-1,20,3,0,7,-1,2
1615922435596752,1,-3,-24,-4,-3,-1,-4,-1
1615922435596752,2,5,21,5,5,3,-2,-2
1615922435610690,-2,-4,-2,-6,-3,1,2,1
1615922435610690,3,3,-9,0,0,-12,-1,2
1615922435611687,0,3,-8,-2,-13,-7,0,2
1615922435611687,2,0,-12,-7,21,-8,-4,0
1615922435626652,-2,0,6,12,-2,-1,2,-1
1615922435626652,-5,1,5,-16,-3,3,-1,-2
1615922435632633,-2,-4,3,2,-3,0,-4,-3
1615922435632633,2,2,-13,4,-2,2,1,3
1615922435648589,-2,-3,-7,1,2,-12,-1,-2
1615922435648589,-4,-5,3,-4,4,0,1,-2
1615922435655636,-3,2,1,0,3,1,-1,-2
1615922435655636,2,-5,-19,-8,-5,9,3,2
1615922435672525,0,4,20,4,2,5,1,0
1615922435672525,-2,-5,-9,1,-2,-5,-3,-1
1615922435673549,-3,-1,7,-5,2,4,-2,-1
1615922435673549,-7,-7,-5,-14,-10,-1,0,-3
1615922435686487,3,-4,-21,5,0,-2,-2,1
1615922435686487,0,3,15,-2,4,-1,-1,-1
1615922435692472,0,1,-4,5,-3,8,3,-3
1615922435692472,-1,0,4,5,-8,-8,-4,-1
1615922435709426,-1,0,1,-11,3,-17,-5,-2
1615922435709426,1,-1,-6,11,9,-1,-4,-4
1615922435723393,0,3,4,-11,2,4,1,-1
1615922435723393,4,-3,-13,8,-2,4,-3,2
