timestamp,emg1,emg2,emg3,emg4,emg5,emg6,emg7,emg8
1615919175326680,-1,-5,-2,-2,-26,8,-8,-2
1615919175326680,1,2,-6,-1,-3,-8,1,-1
1615919175327677,1,1,5,-1,20,-1,3,-2
1615919175327677,0,-1,-2,2,-14,16,-8,0
1615919175348673,-1,-3,-3,-4,16,-5,16,0
1615919175348673,-2,0,4,3,-4,6,-39,-5
1615919175350272,0,-4,-5,-1,-1,-12,3,-2
1615919175350272,-3,1,0,-2,-11,-2,-2,-2
1615919175363084,0,1,1,-1,-14,-4,-4,0
1615919175363084,-3,-3,-8,-7,-19,-2,19,0
1615919175379041,-1,0,15,3,23,10,-8,-1
1615919175379041,0,-5,-7,-2,12,-13,8,-1
1615919175386022,2,-1,-4,2,-6,6,5,2
1615919175386022,3,5,4,2,-4,8,2,2
1615919175388018,-3,-1,-4,-3,-3,-18,-2,-2
1615919175388018,-3,-5,-3,-2,-13,2,-1,-2
1615919175416743,0,-1,0,-4,-1,0,5,0
1615919175416743,0,-2,-2,-2,6,7,12,2
1615919175417740,-1,-1,-5,-2,18,3,0,0
1615919175417740,-4,0,1,-5,-18,-7,-9,-3
1615919175422727,-1,-1,-4,6,-17,0,2,0
1615919175422727,-1,-3,-1,-2,5,-3,-4,-2
1615919175431704,4,1,-1,-4,-5,6,15,2
1615919175431704,0,-1,1,1,0,-4,-8,-1
1615919175446688,0,-2,-5,-4,20,0,4,-2
1615919175446688,-2,0,-2,1,-10,1,-4,-3
1615919175448659,-1,-4,-7,-3,-21,-9,-8,-2
1615919175448659,1,-2,1,1,1,5,8,2
1615919175468628,-1,1,-4,-2,-6,-2,-9,-3
1615919175468628,0,1,4,5,12,-4,3,-1
1615919175470600,-1,2,-7,-3,-1,5,-5,-2
1615919175470600,1,0,0,-1,-7,-5,17,2
1615919175482572,-5,-2,1,-8,-6,-27,-31,-6
1615919175482572,-1,-3,-4,-3,0,-2,-3,0
1615919175491543,-1,-2,3,4,6,9,18,-2
1615919175491543,-1,0,-6,-3,-10,-13,-34,-3
1615919175506503,2,4,8,1,-24,16,15,3
1615919175506503,-1,-1,-2,-2,16,-3,5,1
1615919175508523,-1,4,9,2,-4,-8,-3,-1
1615919175508523,-1,2,-5,4,9,8,3,2
1615919175528611,-2,-4,-12,-6,-6,-6,-6,-3
1615919175528611,0,1,7,3,-8,9,-3,-2
1615919175530581,-4,-3,-7,-3,-7,-9,0,-1
1615919175530581,-2,0,1,-1,-10,-7,-3,-3
1615919175542549,1,-2,-2,-1,16,16,-2,2
1615919175542549,0,-2,-1,-1,3,-12,5,-1
1615919175551232,0,-1,-4,3,6,3,-6,-2
1615919175551232,-1,0,-1,-4,-10,-1,1,-2
1615919175566819,-1,-4,1,4,30,11,3,0
1615919175566819,-1,1,2,1,-12,-15,1,-3
1615919175568815,-1,-2,-1,-3,-10,0,-3,-1
1615919175568815,-3,-5,-5,-1,8,5,0,-1
1615919175588757,1,-2,-5,-3,10,-4,17,0
1615919175588757,0,4,0,-2,26,0,-20,-2
1615919175590752,0,0,-2,-1,-8,-7,-1,-2
1615919175590752,0,3,4,0,-16,-5,12,0
1615919175602790,-1,-1,9,5,29,5,-11,-1
1615919175602790,-3,-4,3,-6,-47,-9,7,-3
1615919175617783,-2,-2,-11,-8,16,10,-3,1
1615919175617783,-1,-5,2,1,35,11,-1,-3
1615919175626757,0,5,3,-3,-25,2,-2,0
1615919175626757,-2,-5,-8,-3,1,0,2,-2
1615919175627731,1,0,3,4,-3,-6,-3,0
1615919175627731,2,-1,-7,-2,-10,-3,-7,1
1615919175648692,-2,-2,-2,-2,-17,5,1,-1
1615919175648692,-3,-2,-7,-1,17,-6,-4,-1
1615919175651074,-1,-2,-1,-2,-7,12,12,2
1615919175651074,-1,-2,-3,-5,-8,-25,-2,0
1615919175671818,-2,1,5,9,41,2,-4,-3
1615919175671818,-1,-1,1,-2,-9,14,1,3
1615919175672816,3,-2,-1,1,-31,-10,3,-1
1615919175672816,-1,4,4,-3,-2,-9,-8,-3
1615919175686777,0,8,4,2,-3,-4,-3,-1
1615919175686777,-2,-3,0,-4,-12,6,-1,-1
1615919175687774,0,-3,-2,1,18,11,10,0
1615919175687774,1,-2,-6,-4,-8,-3,-19,-1
1615919175708837,-1,-3,2,2,-13,-4,3,-2
1615919175708837,1,3,-1,-1,-10,4,8,0
1615919175710819,-1,0,6,1,26,-5,1,-1
1615919175710819,0,-4,0,-2,-6,-5,-10,-2
1615919175722767,-2,-3,-7,-5,-8,-10,-3,-3
1615919175722767,-1,-5,-1,2,4,-6,1,0
1615919175731743,-2,1,-2,-1,-3,-3,-13,-2
1615919175731743,0,-2,9,3,-2,4,15,1
1615919175746976,-1,-5,-12,-3,30,2,-7,-2
1615919175746976,0,1,9,3,11,-4,-3,-3
1615919175747976,-1,4,-8,-7,4,1,3,-2
1615919175747976,-1,-4,-2,0,-1,21,2,-2
1615919175768888,0,-2,-3,-3,0,-4,5,4
1615919175768888,-1,0,1,1,-8,8,-2,-2
1615919175771881,0,-2,1,1,21,3,2,1
1615919175771881,0,4,1,-1,10,12,15,0
1615919175791995,-1,-1,-3,-5,-14,-18,-13,-4
1615919175791995,-2,-1,-1,0,-2,-19,-5,3
1615919175792995,-1,-1,0,3,-6,6,-5,-3
1615919175792995,-2,-3,-8,-5,-18,-6,0,0
1615919175806945,-2,3,18,7,-3,11,19,1
1615919175806945,2,4,-4,-3,-14,-11,-2,-3
1615919175808016,0,-3,0,3,-10,0,-9,1
1615919175808016,0,0,-5,-2,-3,-6,1,-1
1615919175829476,-1,0,-4,-6,7,-3,-10,-2
1615919175829476,0,-4,-1,1,-7,6,4,0
1615919175830197,-3,-3,-2,-6,-12,-9,-6,-3
1615919175830197,-2,-1,2,0,4,-2,0,-1
1615919175851978,0,1,-7,3,9,-2,-7,-2
1615919175851978,-2,-1,-5,-4,-2,24,3,0
1615919175852819,-2,-2,-1,-5,-4,-24,0,-2
1615919175852819,-2,-2,1,2,43,4,-6,-3
1615919175866931,0,3,2,-2,-31,1,13,1
1615919175866931,0,0,-3,0,9,6,-23,-1
1615919175868901,-2,-1,-1,0,-10,2,11,-2
1615919175868901,1,0,0,-1,-15,-22,-19,3
1615919175890030,-1,-3,1,-6,-20,-1,-3,-1
1615919175890030,2,1,4,0,25,4,12,0
1615919175890995,0,-1,4,-6,-10,-2,-11,-4
1615919175890995,-1,1,3,11,18,-3,0,-2
1615919175911961,-1,-3,-3,-3,-9,0,14,1
1615919175911961,-2,-2,-8,-3,-5,-17,-6,-1
1615919175912791,-2,-1,-3,-1,11,1,-3,-1
1615919175912791,0,0,7,-2,-27,2,10,0
1615919175925782,-2,-2,-1,-2,-3,1,9,-2
1615919175925782,-3,-5,1,0,1,-7,-16,-5
1615919175932765,2,1,-3,1,24,8,5,1
1615919175932765,1,3,-6,-2,-9,14,2,-2
1615919175948698,-3,-5,3,0,-7,3,-3,0
1615919175948698,-4,-1,-2,-2,-6,-13,6,-3
1615919175950103,0,-3,-3,-2,-14,2,0,1
1615919175950103,-1,-1,-1,3,37,1,-4,-2
1615919175971429,1,2,7,0,1,12,6,0
1615919175971429,-1,-2,-7,-4,1,-5,3,3
1615919175973422,-2,-2,2,-3,-27,-7,-23,-3
1615919175973422,-2,-1,-2,3,-9,-5,2,-2
1615919175985508,-1,-3,-8,-4,5,-4,-5,1
1615919175985508,-2,-3,-4,2,-15,-14,-1,-3
1615919176000568,-2,-2,5,3,4,4,25,0
1615919176000568,-2,-4,3,-5,-1,1,-34,-2
1615919176008818,1,4,-1,2,6,-10,1,-1
1615919176008818,-1,-3,-5,-2,5,-4,4,-1
1615919176010782,-3,2,0,-1,-19,9,-6,-2
1615919176010782,1,-2,-5,-3,-14,-5,10,0
1615919176031756,-1,-3,-6,-1,-12,5,-2,0
1615919176031756,-3,1,8,-1,-6,3,3,-2
1615919176032721,0,2,1,3,-5,-6,-9,0
1615919176032721,-2,1,11,2,25,8,7,-1
1615919176045689,0,-9,-13,-6,-13,-7,-8,-2
1615919176045689,2,1,-3,2,7,11,12,3
1615919176052795,-2,-1,4,-4,-1,-13,-9,1
1615919176052795,-3,-1,-4,0,-23,-3,4,-3
1615919176068912,0,0,-2,-1,10,-6,-17,1
1615919176068912,-1,-3,-2,-4,6,2,6,-2
1615919176071943,0,0,3,1,3,-5,-1,3
1615919176071943,0,-3,-4,-6,-20,-8,4,-2
1615919176092029,-2,0,-1,-2,-3,-2,1,1
1615919176092029,0,-1,-3,0,1,6,-2,-2
1615919176093029,0,-1,-6,-1,1,14,-2,0
1615919176093029,-3,-2,-5,-5,10,-37,10,1
1615919176106185,-1,1,-8,2,-9,5,-5,-4
1615919176106185,0,1,9,-4,-22,-15,-7,-1
1615919176112160,0,-4,-4,2,28,13,6,-1
1615919176112160,1,0,4,-1,-3,13,1,1
1615919176129489,-2,0,-3,-5,-8,-3,-6,-2
1615919176129489,-4,0,-2,3,36,-6,-1,0
1615919176131146,1,1,-3,0,-18,-2,4,1
1615919176131146,-3,-3,7,-2,8,6,-4,-2
1615919176151979,-3,-3,2,0,-13,-13,-2,-3
1615919176151979,0,-3,-8,-4,21,20,3,-1
1615919176153163,-2,-3,-2,-3,5,-7,24,-3
1615919176153163,2,3,-4,0,-9,-1,-36,0
1615919176165973,-2,-4,-6,3,7,5,9,-2
1615919176165973,1,1,-1,-3,-21,3,5,3
1615919176172890,-2,-3,-1,-3,16,-2,2,0
1615919176172890,-3,-4,-10,-2,1,7,8,0
1615919176189030,-1,3,5,1,-5,-8,-5,-2
1615919176189030,-1,0,-2,-2,-46,-2,-5,-2
1615919176191003,-2,0,0,3,33,-4,-6,-1
1615919176191003,-1,0,0,-6,-5,1,7,-1
1615919176212485,2,1,10,6,6,9,-7,1
1615919176212485,-1,-3,-5,-2,-12,-3,7,0
1615919176213617,-3,1,6,0,-26,-4,-14,-3
1615919176213617,2,-1,-2,-2,34,1,8,4
1615919176226378,0,-2,-4,-5,-7,8,7,0
1615919176226378,-1,-1,0,3,11,-8,11,0
1615919176232891,0,0,-1,-5,-8,-7,-38,-4
1615919176232891,-2,-2,-7,4,-2,2,9,0
1615919176249513,0,0,3,-3,9,2,-2,0
1615919176249513,0,1,5,-1,-15,-8,-3,-3
1615919176251161,0,-2,-4,-1,6,29,16,0
1615919176251161,0,-1,2,-3,-12,-8,11,-1
1615919176271185,-1,2,-3,-3,-4,-22,-19,-2
1615919176271185,1,0,5,6,-1,16,-9,-1
1615919176273156,1,0,-1,-5,-4,-14,2,0
1615919176273156,2,0,0,2,15,8,-3,-2
1615919176285647,-1,-3,1,3,2,5,5,-1
1615919176285647,-2,-4,-9,-5,0,-7,-1,1
1615919176293844,-2,-6,-7,-3,-5,-6,16,0
1615919176293844,-1,4,1,-1,-16,-2,-33,-1
1615919176308831,0,-2,-2,-1,14,-7,-3,-2
1615919176308831,-3,0,1,-2,1,1,-7,-4
1615919176310825,-1,-2,-8,-2,-21,-4,6,0
1615919176310825,-3,-5,-4,-2,33,-2,3,0
1615919176331866,1,2,7,1,-2,-17,-1,-1
1615919176331866,0,3,-1,-1,-1,0,-4,2
1615919176332865,-2,-3,-1,-4,-7,-14,-7,-3
1615919176332865,1,2,4,5,2,7,2,0
1615919176344832,-2,-3,-7,-1,-19,15,10,-1
1615919176344832,2,1,0,3,19,-22,-13,-3
1615919176354205,-1,0,-2,2,-3,-1,-5,-2
1615919176354205,-1,-4,1,0,-11,3,19,-2
1615919176369423,-2,5,2,-2,6,-2,-39,-2
1615919176369423,0,-2,-3,-2,-3,-1,5,1
1615919176371418,-2,-1,-3,-1,9,15,5,0
1615919176371418,-1,-2,-4,-2,-11,-18,-20,-2
1615919176392030,0,-2,4,-2,-38,13,24,0
1615919176392030,-1,1,-5,1,44,3,-10,-2
1615919176393035,1,1,-2,-1,5,2,-4,1
1615919176393035,-1,-1,-5,-4,-19,2,6,-1
1615919176404872,-2,-3,-3,-2,21,-3,0,0
1615919176404872,-4,0,5,-2,-15,4,3,-1
1615919176419910,-2,-2,0,2,5,-3,5,-2
1615919176419910,0,0,-5,-1,7,11,1,-1
1615919176428984,-1,-6,-2,-1,2,-21,1,-1
1615919176428984,0,-2,-5,-1,-1,-1,13,0
1615919176430314,1,2,0,1,8,-2,-37,-2
1615919176430314,-2,-1,2,-4,-26,-6,-3,-1
1615919176452011,1,1,-2,3,22,-2,1,-2
1615919176452011,2,2,12,0,-31,1,1,-1
1615919176452838,1,-1,3,2,41,10,3,-2
1615919176452838,1,1,-8,-4,-34,-27,-4,-3
1615919176465020,1,-3,-6,-4,6,-4,5,3
1615919176465020,0,0,3,1,4,6,-2,1
1615919176473971,0,-1,4,2,-18,-2,1,1
1615919176473971,-2,-3,-4,-7,6,7,7,-2
1615919176489203,0,1,3,2,4,-10,-9,0
1615919176489203,0,-1,-5,-5,0,-3,0,-1
1615919176491172,-2,-3,-5,-1,6,-8,-1,-3
1615919176491172,-4,-3,4,-2,-23,7,1,-1
1615919176510418,-1,-2,-10,-5,-31,-15,4,-2
1615919176510418,-2,-3,2,0,12,-6,1,-1
1615919176526946,0,0,-1,-4,-9,-2,4,-1
1615919176526946,1,-1,-2,2,9,3,3,0
1615919176527919,-2,-1,0,0,10,12,-3,1
1615919176527919,0,-2,-7,0,-1,5,3,-3
1615919176533895,0,2,0,-4,-10,-5,8,0
1615919176533895,-1,1,1,-2,10,-3,-6,-2
1615919176549566,-2,-3,5,3,26,19,16,-1
1615919176549566,0,-3,-6,1,5,-8,-10,0
1615919176551208,-2,2,3,-3,-10,-1,-12,-1
1615919176551208,0,-1,-6,-3,-19,-11,5,1
1615919176571932,-1,0,-1,-1,-2,6,3,-1
1615919176571932,-4,0,6,-1,-12,6,-3,-2
1615919176572905,-2,-3,-5,-1,-5,8,0,-3
1615919176572905,-2,2,14,6,4,-9,-2,-3
1615919176585001,0,2,-4,-4,-17,-5,-7,1
1615919176585001,-3,-4,-10,1,-2,10,-1,-1
1615919176594010,0,2,-3,-1,-19,-15,7,0
1615919176594010,1,-2,-3,-1,21,9,-7,0
1615919176609488,-1,0,1,0,-6,13,2,-4
1615919176609488,-1,-4,-5,-11,-13,-10,-11,-3
1615919176610411,-2,-2,8,7,14,-6,0,-3
1615919176610411,2,3,-1,-3,-8,-6,8,2
1615919176631978,0,-2,-2,0,-39,-3,-5,-2
1615919176631978,-1,-4,-10,-5,17,6,-3,1
1615919176632819,1,4,0,-3,4,-6,5,1
1615919176632819,-3,-1,3,4,-17,5,-6,-1
1615919176645686,-1,2,-7,-5,2,12,-8,-1
1615919176645686,0,-2,5,-2,-6,-40,-5,-2
1615919176654003,-3,-4,-4,-2,-9,4,3,0
1615919176654003,-2,-4,-9,1,-9,13,0,-3
1615919176669863,-1,1,-3,-2,-9,-9,-1,-2
1615919176669863,-1,1,1,2,29,19,11,1
1615919176670877,2,0,2,2,-2,-11,-6,0
1615919176670877,-5,-2,-1,-4,-10,-2,-1,-1
1615919176691907,-2,-4,-7,-6,2,-8,2,3
1615919176691907,1,0,18,9,-1,12,-1,0
1615919176692876,-2,-4,-8,-6,2,3,5,-2
1615919176692876,3,0,-2,2,2,2,0,2
1615919176705717,-2,-4,-1,-1,14,-2,-2,-1
1615919176705717,-2,-1,-6,-4,-23,19,9,0
1615919176713900,0,2,0,2,-9,-14,-9,-1
1615919176713900,0,-3,4,-4,9,-1,0,-3
1615919176728854,-2,0,2,2,27,-6,-5,-2
1615919176728854,1,2,0,-4,-22,2,8,0
1615919176735189,-2,-2,-7,1,10,8,8,0
1615919176735189,-3,-2,-3,-4,-1,1,-11,-3
1615919176751970,1,-1,3,2,5,-10,12,0
1615919176751970,-2,-2,-2,-2,10,-11,-14,-3
1615919176753333,0,1,5,-1,17,7,-1,-1
1615919176753333,1,0,-3,0,-24,-7,5,-1
1615919176773879,-4,-2,0,2,-20,-2,-5,-2
1615919176773879,-1,-1,1,4,6,15,2,0
1615919176775847,0,-3,5,0,-4,-5,1,0
1615919176775847,0,-2,-4,-1,-6,1,-8,0
1615919176789542,0,-3,-3,-3,26,8,9,0
1615919176789542,-2,-2,-7,-6,-64,-14,-9,-2
1615919176790543,-4,-2,-4,-2,-25,-15,-4,-2
1615919176790543,0,-4,1,1,21,11,12,0
1615919176811875,0,0,3,-1,-9,1,-40,0
1615919176811875,1,0,-1,-2,-10,-5,11,1
1615919176812873,3,-1,-3,-4,-6,-4,-8,-1
1615919176812873,-1,-1,-1,-1,44,-1,3,-1
1615919176834465,-4,-3,-2,-11,-67,-13,2,-5
1615919176834465,-1,1,3,7,14,2,1,1
1615919176835396,-2,-2,9,3,-10,8,-8,-1
1615919176835396,1,-2,0,2,12,0,6,0
1615919176849475,0,1,1,-1,3,-25,-9,0
1615919176849475,-3,1,-5,-3,26,0,-9,-4
1615919176850361,-2,-4,-8,-4,-31,0,6,-1
1615919176850361,-1,0,9,1,-38,-8,-5,-1
1615919176871896,0,-2,-5,3,68,17,8,1
1615919176871896,0,-3,-7,-5,16,-13,2,0
1615919176872869,0,4,5,-1,-21,-1,1,0
1615919176872869,-3,-1,-8,-4,-18,3,-1,-3
1615919176894085,-1,-3,1,4,12,6,-9,1
1615919176894085,-1,2,-4,-2,5,3,-2,1
1615919176900686,-1,-5,-3,-2,23,5,6,-1
1615919176900686,-2,1,-6,-2,18,-10,-4,1
1615919176908836,-2,0,1,-5,-12,4,9,-1
1615919176908836,-1,-5,2,2,0,-33,-1,-2
1615919176914823,1,-1,-5,-3,-7,-2,-5,-1
1615919176914823,1,0,0,-2,15,3,9,2
1615919176932001,-1,-4,-9,1,-8,4,6,-1
1615919176932001,-2,1,0,-3,5,9,-5,-1
1615919176932844,0,-1,-3,-3,-1,-6,0,-1
1615919176932844,-1,-1,-4,-2,10,-8,5,-3
1615919176953803,2,-1,-4,2,-14,5,1,-1
1615919176953803,-2,-3,-2,-1,16,4,-5,-3
1615919176955796,0,3,4,-1,1,-1,-1,-1
1615919176955796,0,0,-5,-4,-37,-8,9,-1
1615919176968857,-5,-2,0,-4,32,4,-34,-5
1615919176968857,-1,0,-5,-1,1,10,6,0
1615919176974869,-2,-2,6,4,30,-25,-7,-1
1615919176974869,0,-2,-1,0,2,9,-2,1
1615919176991640,0,0,-3,-2,-7,2,11,-2
1615919176991640,-2,-5,-3,-3,-1,6,-1,0
1615919176993617,-1,-1,-4,-2,10,7,0,-2
1615919176993617,1,0,2,3,12,-3,-12,-1
1615919177013795,-1,-4,-5,-2,-27,-13,8,0
1615919177013795,1,4,5,2,-6,4,1,0
1615919177015789,2,5,0,0,27,22,11,3
1615919177015789,-5,-7,-9,1,-10,-7,-15,-2
1615919177028752,-1,1,14,3,33,4,2,-2
1615919177028752,2,-1,-3,0,-31,-6,3,2
1615919177034757,-2,-3,-1,-1,40,15,-2,-3
1615919177034757,-3,-3,-4,-5,-18,7,6,-3
1615919177051928,0,0,2,1,-44,-12,-12,-1
1615919177051928,-3,2,-6,1,27,7,4,-1
1615919177052716,-2,-5,-8,-3,12,-5,3,-1
1615919177052716,-2,0,-3,0,15,18,-8,-2
1615919177073829,-1,0,2,1,-15,-4,12,2
1615919177073829,3,-3,5,1,-8,-2,-2,1
1615919177075825,-2,-4,-7,-4,-31,-7,-10,-3
1615919177075825,0,7,7,1,22,-5,5,0
1615919177087891,2,0,-9,0,-5,5,5,0
1615919177087891,0,-1,-2,-1,5,-10,-4,-1
1615919177095716,0,-2,1,-1,-25,1,3,0
1615919177095716,-1,-2,3,1,14,-8,0,2
1615919177111153,-3,-2,-5,-3,5,-6,-1,-3
1615919177111153,-2,-1,8,2,-2,1,-6,-3
1615919177113148,-1,-2,-8,-3,-18,-19,-4,-1
1615919177113148,0,1,6,4,12,5,-3,0
1615919177134005,-1,1,13,5,-9,-3,0,-2
1615919177134005,-1,-3,-8,-8,0,-10,6,-2
1615919177135329,-3,0,-1,-1,-1,9,-17,-4
1615919177135329,0,2,-3,0,5,3,6,-3
1615919177148893,2,0,1,0,-1,-13,-4,1
1615919177148893,-4,-3,-1,-3,-4,1,-5,-3
1615919177155637,2,-1,3,2,-4,8,7,1
1615919177155637,0,2,2,-1,0,-13,-10,-1
1615919177172453,2,-1,-5,-3,-7,12,1,1
1615919177172453,-1,0,-2,-3,-11,-8,1,-2
1615919177173425,-5,-3,-10,-1,-13,-1,-2,-2
1615919177173425,0,-1,9,-4,-18,-6,-4,1
1615919177194102,-3,-1,-8,-4,31,-25,4,0
1615919177194102,0,0,13,6,7,12,-1,-1
1615919177195396,-2,-2,-3,-1,18,0,2,1
1615919177195396,2,-3,-2,1,-17,10,16,1
1615919177208872,2,5,5,-4,16,-14,-42,-2
1615919177208872,0,-3,-10,-4,-24,-8,1,0
1615919177214883,-1,3,3,3,21,2,-5,-2
1615919177214883,-1,-1,2,-3,-39,-17,2,-2
1615919177232065,-2,-3,-5,-1,9,21,15,2
1615919177232065,-2,-4,-5,-4,-3,-3,-6,-1
1615919177233061,2,2,4,1,-16,6,7,3
1615919177233061,-2,-2,-7,-3,1,-20,-12,-3
1615919177253792,-2,-1,-2,-3,-1,-2,-4,-1
1615919177253792,-1,1,0,-1,-27,2,-6,-3
1615919177255424,-4,-2,-1,-2,-13,-34,-1,-4
1615919177255424,0,0,-3,1,26,12,5,0
1615919177268178,-2,-3,-5,1,5,7,10,-1
1615919177268178,-1,-4,0,-2,-2,7,16,-2
1615919177282906,0,-3,-1,0,-11,-1,-44,-2
1615919177282906,0,-1,-3,-2,17,3,3,0
1615919177292042,-2,0,-1,-3,-60,-21,-2,-2
1615919177292042,0,-1,1,6,29,17,2,1
1615919177293008,1,1,5,-1,-16,-3,15,-1
1615919177293008,-1,-3,-10,1,29,8,-8,-1
1615919177321902,0,-2,4,0,-1,12,5,-4
1615919177321902,1,2,-4,-2,0,0,-3,0
1615919177322875,-2,-3,-5,-2,-8,0,4,0
1615919177322875,2,2,2,0,-2,8,-5,0
1615919177327959,-1,-1,9,2,-8,0,8,1
1615919177327959,-3,-1,4,2,20,-14,-5,-1
1615919177342875,-1,-2,-4,-3,5,18,3,-2
1615919177342875,-2,-4,-6,-2,-16,-6,-4,-2
1615919177351160,1,0,0,1,-8,11,12,1
1615919177351160,-3,-2,-2,-2,-1,-8,-9,-2
1615919177359164,1,0,-1,-1,15,9,23,3
1615919177359164,-3,-3,-2,-4,41,1,-57,-5
1615919177374352,-1,1,0,-4,20,2,5,0
1615919177374352,-2,-3,-5,-4,-25,6,3,-1
1615919177375343,-2,-1,3,4,-20,-16,-5,-1
1615919177375343,1,1,3,3,-17,-17,10,-1
1615919177388688,-1,-1,-6,-1,31,2,-3,-1
1615919177388688,2,0,-4,-2,16,1,-4,-1
1615919177396439,-3,-2,-3,-6,-12,5,2,-3
1615919177396439,0,0,4,0,-31,-33,8,1
1615919177412036,0,1,13,5,-3,4,-5,0
1615919177412036,-2,-3,-11,-4,-18,0,6,0
1615919177412822,0,0,4,2,4,0,1,1
1615919177412822,-1,-2,-7,-3,-21,6,3,-3
1615919177433670,-1,-1,-6,-3,20,-8,-1,-3
1615919177433670,1,-1,0,4,32,8,14,2
1615919177435594,-1,1,0,-6,-6,-13,-23,0
1615919177435594,-5,-4,2,0,2,5,4,-1
1615919177457074,-2,-4,-10,-5,2,3,-5,-1
1615919177457074,0,2,3,1,-5,1,11,1
1615919177459075,0,-3,-5,-1,-3,-1,0,0
1615919177459075,0,-2,1,-2,-7,4,5,-1
1615919177471704,1,0,-3,0,-10,12,-1,1
1615919177471704,0,-1,10,4,-6,-26,-13,-2
1615919177472701,-1,-3,-4,-1,7,12,18,-1
1615919177472701,-2,1,-1,-1,-35,-1,-6,-5
1615919177494938,0,1,-5,-2,-26,-6,-2,1
1615919177494938,-1,-1,3,4,18,3,-5,-1
1615919177495861,2,1,0,0,2,-3,3,-1
1615919177495861,1,-5,-2,0,-7,9,6,0
1615919177508180,-2,2,0,-7,-19,-20,0,-4
1615919177508180,-2,-1,-5,-6,-11,-1,0,-2
1615919177516417,-1,3,4,2,2,-2,-4,-2
1615919177516417,-1,-2,-5,0,15,15,6,1
1615919177532005,1,0,-7,0,-14,-14,0,0
1615919177532005,0,2,5,1,8,1,-13,0
1615919177532870,-2,-1,-1,-3,16,-13,7,1
1615919177532870,0,4,9,-4,-16,-6,-3,-1
1615919177554434,2,1,-4,3,9,8,2,1
1615919177554434,-2,1,-3,-3,-13,-2,0,-2
1615919177556428,-1,-2,-1,-2,-8,3,-8,0
1615919177556428,-3,-3,-3,3,48,-2,1,-1
1615919177567536,-1,-3,2,-3,-16,0,1,-2
1615919177567536,1,-2,-2,-2,-35,-1,-5,-4
1615919177576450,0,-2,-2,0,36,9,-3,0
1615919177576450,-4,-2,2,-1,-15,5,10,-2
1615919177591990,-2,-1,-2,2,17,-27,15,-2
1615919177591990,1,-1,-4,0,-1,3,-13,0
1615919177598044,-2,-1,-1,-3,-35,2,-6,-3
1615919177598044,0,1,8,3,4,5,11,0
1615919177613955,-2,-4,-3,-1,16,3,-2,0
1615919177613955,-2,1,8,2,-10,1,0,1
1615919177615901,-1,-1,-4,4,56,-5,-6,-2
1615919177615901,-2,-3,-5,-3,-9,-2,6,-1
1615919177627858,-3,-3,-3,-1,-17,11,-3,-1
1615919177627858,-3,-3,-9,-2,11,-5,-3,-2
1615919177636950,0,2,7,1,-24,-1,-3,1
1615919177636950,-1,-1,-7,1,42,8,1,0
1615919177652026,-2,-3,5,-3,32,17,-9,-3
1615919177652026,-2,-1,-4,0,-20,-13,3,-1
1615919177652839,-1,0,5,1,-14,10,8,0
1615919177652839,-1,0,-6,-1,-19,-4,-9,0
1615919177673862,-1,-2,-1,-4,2,3,0,1
1615919177673862,-2,-3,0,-1,23,7,-8,-2
1615919177675857,1,1,-4,-5,-21,0,8,3
1615919177675857,2,2,6,4,-9,-6,-2,1
1615919177696975,-1,-1,-3,0,10,-3,-8,-2
1615919177696975,-2,-4,-8,-4,-24,-6,7,-1
1615919177697979,-2,-3,1,1,12,9,1,-3
1615919177697979,1,1,-1,-4,-24,5,-9,-2
1615919177711458,0,-2,-6,-1,-31,-33,4,-2
1615919177711458,1,0,2,0,0,-6,-3,-1
1615919177713430,-3,-1,-9,-3,-11,3,0,-2
1615919177713430,-1,-3,2,0,12,1,5,0
1615919177734404,-2,-1,1,-2,-15,9,23,-1
1615919177734404,-1,-2,3,2,1,-13,-44,-2
1615919177735371,0,4,-4,-7,-7,-8,-12,-5
1615919177735371,-1,-1,5,5,4,-1,4,-2
1615919177756984,0,-1,-3,-1,5,16,7,0
1615919177756984,0,1,2,-2,-16,-19,7,0
1615919177757984,-2,-5,-3,-3,17,12,2,-1
1615919177757984,-2,0,-8,-6,-14,-7,-10,0
1615919177771968,-1,1,4,4,-3,24,9,-1
1615919177771968,-1,-3,-6,-2,21,4,5,1
1615919177772944,0,-1,-2,1,-43,-12,-6,0
1615919177772944,-1,0,2,-5,20,-8,-3,-1
1615919177793934,0,-1,-4,2,2,4,-7,1
1615919177793934,-1,0,-3,-3,-3,12,14,0
1615919177795363,2,5,3,2,21,-6,-3,0
1615919177795363,0,-1,-1,0,-36,2,-2,-1
1615919177817063,-1,-6,-6,-3,-1,-7,-3,0
1615919177817063,-2,-2,11,-1,3,-2,2,-2
1615919177818063,-1,-3,-4,-5,1,-5,1,-1
1615919177818063,-1,1,-5,0,3,-2,-4,-3
1615919177839107,-4,-4,0,-2,23,-10,-21,-4
1615919177839107,0,3,-5,-5,33,3,20,-2
1615919177841101,1,-1,1,1,-11,3,7,1
1615919177841101,-2,-4,3,-3,-10,-3,-5,-2
1615919177854141,0,0,2,1,-11,-14,-3,-2
1615919177854141,-3,-3,-9,-4,11,5,-4,0
1615919177856136,-2,-1,0,2,3,-5,4,2
1615919177856136,-5,-2,-8,-3,-4,-3,-5,-3
1615919177877078,0,3,6,-2,-21,-1,7,-1
1615919177877078,1,2,12,2,5,-7,-2,1
1615919177878076,-2,-4,-3,-2,-4,-6,-3,-3
1615919177878076,0,-2,-6,-2,3,8,12,2
1615919177891365,-2,-3,-1,-1,-2,-1,-12,-1
1615919177891365,1,2,-3,-3,-28,-29,2,-1
1615919177898203,-3,-3,-1,6,76,11,-5,-4
1615919177898203,-1,-3,1,-2,24,7,1,-2
1615919177914008,1,0,-1,-3,-9,-7,7,1
1615919177914008,-2,-3,-1,-1,1,8,3,0
1615919177915920,-1,0,1,-3,-37,-13,-12,-2
1615919177915920,1,-3,-6,-2,13,-7,-2,-2
1615919177944005,0,0,-4,0,-28,2,-4,-2
1615919177944005,0,-3,4,3,9,14,1,1
1615919177946234,-3,-7,-10,-7,-30,4,4,-1
1615919177946234,-2,1,5,0,-5,-13,1,0
1615919177951429,-4,-4,-4,-1,-5,-7,-9,-4
1615919177951429,-2,0,-5,2,11,10,6,-1
1615919177958203,1,1,4,-4,-10,1,-3,-2
1615919177958203,1,0,-3,0,-28,-1,8,2
1615919177974543,-1,-2,-3,1,19,2,-11,-1
1615919177974543,-1,-3,-3,-4,0,6,-8,-4
1615919177975433,-1,2,1,0,5,3,7,-1
1615919177975433,-2,-1,0,-2,-7,10,-8,-1
1615919178003796,0,1,2,-2,-1,-4,0,1
1615919178003796,0,-2,-4,-3,-10,4,-6,-1
1615919178005386,-3,-5,-7,-2,9,1,-1,0
1615919178005386,1,1,6,0,9,-12,-3,0
1615919178010401,-2,-4,-2,-2,8,2,15,-2
1615919178010401,1,2,13,8,24,2,-33,-2
1615919178018880,-1,0,1,-2,-13,-6,0,-2
1615919178018880,-2,0,-1,-2,13,7,-1,-1
1615919178034489,-2,-4,-7,-2,4,-29,-2,-2
1615919178034489,1,1,-5,-3,-26,4,8,2
1615919178035412,1,1,1,4,37,5,-7,0
1615919178035412,2,-1,0,-1,11,-6,0,-1
1615919178057018,1,4,2,1,11,13,-7,0
1615919178057018,-1,-2,-6,-3,-24,-2,9,-2
1615919178059599,0,-3,3,-4,-11,2,-4,-2
1615919178059599,-3,0,-10,0,6,-5,-5,-1
1615919178070917,1,0,-1,1,-2,6,-2,-1
1615919178070917,-1,-2,-6,-4,-21,-5,-1,-5
1615919178078230,-2,-2,10,1,-1,-9,0,0
1615919178078230,0,0,-5,-5,-4,-5,25,3
1615919178094017,0,2,8,7,3,15,-22,0
1615919178094017,-4,-2,-2,-3,20,3,-1,-1
1615919178095358,1,0,-6,-5,-40,-1,-3,-2
1615919178095358,1,0,2,3,15,-5,4,1
1615919178117450,-1,-1,-1,-4,-7,-6,1,-4
1615919178117450,2,0,-5,0,9,0,10,1
1615919178118455,-1,0,2,7,5,-4,-4,0
1615919178118455,-2,-2,3,-2,-1,0,-17,-4
1615919178130441,-3,-2,-5,-3,49,2,14,0
1615919178130441,-2,0,5,2,-2,-1,-6,-2
1615919178137400,0,1,-7,-5,-1,-4,6,0
1615919178137400,-4,-5,-9,-1,-21,-5,-11,-3
1615919178154428,2,0,7,4,-1,-1,-6,-1
1615919178154428,-1,0,-2,-5,1,11,11,2
1615919178155431,1,2,1,3,2,-38,-1,0
1615919178155431,-2,0,-7,-7,-7,15,15,0
1615919178177128,-1,2,10,6,-13,-24,-51,-3
1615919178177128,-2,-6,-6,0,11,8,-1,-1
1615919178178128,1,2,-3,-2,16,17,0,-1
1615919178178128,-1,0,1,1,4,-1,-10,-1
1615919178189830,-2,-5,-10,-7,-44,-4,16,-1
1615919178189830,0,0,-1,-2,14,2,1,1
1615919178199778,0,-1,3,-1,-17,4,-9,-2
1615919178199778,0,-2,2,1,1,-1,-1,-4
1615919178213804,0,2,-4,1,24,23,9,1
1615919178213804,-1,-3,-9,-5,-25,-22,-9,-2
1615919178215801,-3,1,7,1,16,6,9,-1
1615919178215801,5,-2,-4,0,-12,-9,-5,1
1615919178236746,2,2,6,-3,-12,-3,6,1
1615919178236746,-2,1,7,0,5,-4,15,0
1615919178237740,-1,0,-7,-1,-6,7,-42,-3
1615919178237740,-4,-4,-4,1,-6,5,1,0
1615919178250705,0,-2,3,1,9,-14,5,-1
1615919178250705,-2,-2,-2,-3,-21,-4,6,-1
1615919178258854,0,-2,-1,-1,14,2,6,0
1615919178258854,-4,0,-3,-2,-38,-8,-1,-4
1615919178273830,-1,-4,-7,-5,9,19,-2,-2
1615919178273830,-1,-1,5,4,16,-3,-1,-3
1615919178275717,0,-1,-3,0,-20,-4,9,0
1615919178275717,0,2,10,1,-1,-8,-12,0
1615919178297112,-4,-4,-2,-3,0,-5,9,-2
1615919178297112,-2,-2,-5,2,-43,-2,-7,-1
1615919178298112,-1,3,0,-2,-5,-20,3,-1
1615919178298112,2,0,-3,-2,13,7,6,2
1615919178309904,1,0,-2,0,-13,2,1,0
1615919178309904,1,-3,-11,-4,5,-13,1,1
1615919178318926,-2,-4,-2,-1,-19,6,4,-1
1615919178318926,0,1,2,-3,20,2,-8,-1
1615919178333939,1,0,-5,-2,-23,-6,8,1
1615919178333939,0,3,7,0,50,21,-5,-3
1615919178335835,-2,-3,-8,-1,-12,-16,2,-2
1615919178335835,-2,-1,-1,0,-10,-1,1,-1
1615919178357358,-1,0,9,2,3,-1,-1,0
1615919178357358,-1,-2,-3,-4,-10,10,-1,-2
1615919178362343,-2,0,0,-2,6,-25,4,0
1615919178362343,0,-5,-9,-1,-4,-8,-5,-2
1615919178370319,1,-1,-2,-2,-8,5,-2,0
1615919178370319,-1,-3,-1,1,18,0,-10,-2
1615919178379295,-4,-3,-2,1,14,18,19,0
1615919178379295,-4,-3,-5,-7,-11,-5,-13,-3
1615919178394427,2,3,3,1,-10,-8,-2,2
1615919178394427,-2,2,-1,2,-24,-10,-1,-1
1615919178395863,3,3,10,6,40,17,17,4
1615919178395863,-1,-2,-6,-2,-44,-14,-12,-1
1615919178416402,-3,-2,-5,-7,45,4,-2,-3
1615919178416402,0,0,5,1,20,-11,-1,-1
1615919178418400,3,2,2,-4,-24,2,-10,-2
1615919178418400,-2,-2,0,2,20,12,7,1
1615919178430392,-4,-3,2,-4,-26,-26,-9,-4
1615919178430392,-5,-5,-10,-7,-38,1,0,-3
1615919178439698,-1,-3,1,2,-13,4,-5,-3
1615919178439698,-4,1,3,-2,20,-7,-2,-2
1615919178462024,-2,-4,-13,0,7,10,2,0
1615919178462024,1,-3,2,-3,17,5,12,0
1615919178463823,1,-2,-2,2,-9,-3,-7,0
1615919178463823,0,1,-1,-1,-16,3,5,-2
1615919178476900,-1,-1,3,5,22,6,1,3
1615919178476900,-2,-1,-1,-2,-14,-10,-1,0
1615919178477924,-1,-5,-10,-3,13,6,2,-1
1615919178477924,1,0,4,-3,9,3,-7,-3
1615919178499594,0,6,13,6,5,0,7,1
1615919178499594,1,1,-6,3,10,10,-5,0
1615919178501204,-5,-2,-5,-10,-13,-21,-12,-2
1615919178501204,-1,-1,-4,2,41,3,3,1
1615919178514126,0,-3,-7,-5,-13,4,1,-4
1615919178514126,1,1,1,0,-22,-5,-6,1
1615919178516121,-2,-4,-2,-1,-3,5,-4,-1
1615919178516121,-2,-3,-1,-2,8,3,10,0
1615919178536886,-1,-1,4,0,1,10,-8,0
1615919178536886,-1,-1,-1,2,-4,-10,-2,0
1615919178537883,-2,-1,0,-2,-4,-1,3,-2
1615919178537883,1,0,-2,1,12,-2,1,0
1615919178550737,0,-4,-3,2,-5,-1,5,-3
1615919178550737,-2,-1,-7,-4,-14,9,1,-2
1615919178566468,0,1,2,3,-10,10,0,-2
1615919178566468,-1,1,4,1,9,22,7,-1
1615919178573956,0,0,-11,-8,-25,-17,-9,-1
1615919178573956,0,-5,-3,1,17,4,-4,0
1615919178575850,1,-1,6,-1,0,-2,-7,-1
1615919178575850,1,2,1,4,-29,3,3,1
1615919178596976,-2,-1,0,0,-3,10,3,-1
1615919178596976,-1,-2,1,-1,9,-20,9,-3
1615919178597979,-3,-2,2,-2,7,12,-34,0
1615919178597979,-1,1,0,-3,-6,-13,-6,1
1615919178610728,-2,-1,-2,2,-24,9,1,2
1615919178610728,-2,-4,-6,-7,29,-6,8,-1
1615919178618915,2,7,0,3,2,3,6,0
1615919178618915,-1,0,4,1,-16,-10,2,-3
1615919178634310,1,0,-7,-4,2,-3,-4,-1
1615919178634310,2,-1,6,1,-5,7,-4,1
1615919178636206,-2,-5,-15,-6,-4,3,13,-1
1615919178636206,-2,-1,-1,-4,-23,-25,-20,-2
1615919178657078,0,2,6,1,0,3,0,-2
1615919178657078,-1,1,3,2,4,3,-3,-1
1615919178659040,-1,-4,-6,-4,6,-4,10,2
1615919178659040,0,-1,-3,2,-11,7,5,0
1615919178679253,-1,-2,-1,-1,21,2,-1,0
1615919178679253,-1,3,3,-1,-21,-7,-12,-1
1615919178680351,-1,-1,-1,2,25,10,5,-1
1615919178680351,1,-2,-3,-6,-6,2,10,0
1615919178693915,-2,-2,-7,0,-21,-46,-36,-6
1615919178693915,-1,0,6,1,5,9,-8,-1
1615919178695421,0,-4,1,-2,-6,-3,7,1
1615919178695421,0,-1,-4,-2,13,4,7,-2
1615919178716891,-1,-2,-6,-3,-2,-5,3,-3
1615919178716891,-2,-2,0,-2,-16,2,-2,-1
1615919178717888,-1,1,-1,-2,-12,-15,-7,-1
1615919178717888,0,2,3,1,-8,4,-5,1
1615919178738763,-1,-1,2,0,-2,2,7,1
1615919178738763,-1,0,-5,-6,12,-4,-5,-3
1615919178740721,-2,-3,-5,-2,-29,4,4,0
1615919178740721,0,-2,-3,-1,12,-3,-5,-1
1615919178754331,-4,-3,-4,-2,32,6,19,-1
1615919178754331,-1,2,-11,-2,-15,-1,-31,-2
1615919178755378,-1,-1,-2,-1,4,6,-5,-3
1615919178755378,-2,-1,4,1,-1,-1,-1,-1
1615919178776531,0,1,0,-6,-40,-6,14,1
1615919178776531,-1,-2,-4,1,3,-10,-9,-2
1615919178777931,-1,-3,-5,-2,-5,1,9,0
1615919178777931,1,1,-1,-3,-20,-5,-12,-1
1615919178799573,0,-7,-5,-1,14,9,1,0
1615919178799573,-3,3,13,2,7,11,11,0
1615919178800338,0,-2,-5,3,-3,-10,-7,0
1615919178800338,-1,0,5,-4,2,-10,7,-3
1615919178813806,-2,-4,-2,-1,18,3,-7,-2
1615919178813806,-1,0,-6,-1,8,-26,-4,-2
1615919178819813,3,1,7,-1,-23,-2,-1,-1
1615919178819813,-2,-3,-5,-1,37,6,2,0
1615919178836742,-1,0,0,-1,-1,1,-6,-1
1615919178836742,-2,-4,-6,-2,-55,-1,10,-1
1615919178837740,-1,2,6,0,46,1,0,-2
1615919178837740,-1,-2,-6,-2,-4,-2,-9,0
1615919178858515,1,-1,4,-3,8,14,1,1
1615919178858515,0,-3,4,-1,6,-13,9,-1
1615919178860510,-2,-2,-7,-1,-20,16,-3,-2
1615919178860510,-2,3,10,4,5,-10,-3,0
1615919178873819,1,-2,-8,-3,25,3,2,0
1615919178873819,1,1,1,0,-2,3,-2,-1
1615919178880675,-1,-1,-4,-4,-21,0,9,-1
1615919178880675,-1,-2,-3,0,3,3,2,0
1615919178896811,-3,-1,9,0,-21,-6,-2,1
1615919178896811,-1,0,-9,-2,-16,10,-2,-2
1615919178898785,0,0,-1,0,13,-8,-2,2
1615919178898785,1,5,3,1,-17,2,0,-2
1615919178918761,-1,-4,-7,-1,-18,-3,-5,-2
1615919178918761,1,-2,-2,-1,27,2,-8,-2
1615919178920725,0,-4,-1,-1,19,-17,-6,1
1615919178920725,-3,-2,-3,-3,-23,-9,6,-4
1615919178933712,0,5,11,3,32,13,-12,-1
1615919178933712,1,5,3,4,-5,2,7,-1
1615919178940697,-1,-2,0,-5,29,3,12,2
1615919178940697,-2,-6,-9,-3,-20,11,-12,-3
1615919178957006,-1,-1,-8,-1,-29,-4,8,0
1615919178957006,-2,3,13,1,6,-9,3,0
1615919178959003,0,1,0,0,-23,6,-8,-3
1615919178959003,-2,-3,-4,-1,41,6,12,0
1615919178979698,2,2,-2,1,-2,-2,-3,0
1615919178979698,-2,-4,-2,-3,3,0,-1,1
1615919178981292,0,0,-2,-1,-9,0,0,-2
1615919178981292,-2,-3,0,2,15,6,5,-1
1615919178993732,0,-1,-1,-1,-12,-10,-7,-1
1615919178993732,0,-1,-9,-3,9,9,1,1
1615919179000650,0,0,4,1,-1,-39,-5,-2
1615919179000650,-1,1,-2,-3,5,-6,10,2
1615919179017140,0,0,1,-4,4,7,-4,-1
1615919179017140,0,0,0,-2,-11,-6,5,1
1615919179018140,-4,0,-6,-8,17,6,-13,-4
1615919179018140,0,-4,-10,3,-57,-5,6,0
1615919179038790,-1,-1,2,0,9,-13,-1,-3
1615919179038790,1,-2,-10,-4,-12,8,-2,3
1615919179041147,-1,0,5,1,18,3,17,2
1615919179041147,-1,-4,-7,-3,1,-9,-27,-2
1615919179053342,-3,0,3,1,-1,0,-1,-2
1615919179053342,1,-5,1,2,-3,3,-1,-1
1615919179060346,-3,-5,-6,-1,-12,1,0,0
1615919179060346,-1,1,4,-2,7,7,-1,-1
1615919179076277,0,-2,1,0,-18,0,4,0
1615919179076277,-2,-2,0,-2,7,6,1,-2
1615919179078273,0,2,-7,-4,-13,3,-7,-2
1615919179078273,-1,-2,21,7,26,6,9,-1
1615919179099684,-2,-5,-9,-4,-16,-1,-5,0
1615919179099684,0,2,4,0,18,7,5,-2
1615919179101254,-1,-3,-7,4,-34,0,-5,-1
1615919179101254,-1,-1,-4,-9,11,2,-2,-1
1615919179121922,1,3,3,3,12,10,15,0
1615919179121922,-3,-4,0,-3,-1,-18,-3,-1
1615919179122924,1,1,5,-4,4,2,0,0
1615919179122924,-2,-4,-9,-1,-13,1,-5,-1
1615919179137024,0,1,0,-3,10,1,3,-1
1615919179137024,-1,-3,-6,-3,5,-8,-4,-1
1615919179138022,-2,-1,10,-1,-11,-4,-2,-1
1615919179138022,0,6,-3,2,1,13,-4,-1
1615919179159646,-3,-3,-12,-7,-32,-4,-3,0
1615919179159646,0,2,7,6,17,-7,1,-1
1615919179161643,0,-5,-8,-3,-13,2,-2,0
1615919179161643,0,-2,-6,2,18,4,10,1
1615919179172613,-3,-3,-1,1,47,-2,-37,-4
1615919179172613,3,-1,-5,-9,-50,-13,5,2
1615919179181782,-2,-1,1,1,-19,2,-1,-2
1615919179181782,0,-3,-6,-2,19,-11,-12,-4
1615919179196721,-2,0,2,-6,-10,-9,10,1
1615919179196721,-3,-2,-5,-2,-3,4,1,1
1615919179198754,1,1,0,1,9,4,-3,0
1615919179198754,-2,1,2,-2,-15,-9,-3,-1
1615919179218835,1,-3,-6,0,1,-5,6,1
1615919179218835,1,4,13,6,3,-21,1,-1
1615919179220831,-2,1,-2,0,13,-1,9,-2
1615919179220831,-3,-3,0,-2,-19,-13,-18,-3
1615919179232981,-3,-1,0,0,-32,2,7,-2
1615919179232981,-4,-5,-12,-2,-18,12,-5,1
1615919179242205,-1,-1,1,3,21,-16,21,-1
1615919179242205,0,1,0,0,15,-10,-48,-2
1615919179256997,0,0,5,-4,12,7,4,-1
1615919179256997,0,0,-2,1,-37,5,1,0
1615919179258927,0,-1,3,-2,4,-6,-1,0
1615919179258927,-2,2,4,1,-4,5,8,1
1615919179278828,0,-3,-7,-2,34,10,8,0
1615919179278828,-4,-5,-2,-5,-7,-38,-9,-4
1615919179280837,-1,3,-5,-2,9,10,-5,0
1615919179280837,-2,0,1,-4,-6,-19,2,-1
1615919179292800,-3,-2,-4,3,-18,-2,-7,-6
1615919179292800,2,-3,-3,-1,26,16,10,1
1615919179301838,-2,-6,-6,-2,15,7,-9,-3
1615919179301838,0,-4,-3,-9,-38,-10,12,2
1615919179316802,-1,3,-2,2,-7,5,-1,0
1615919179316802,-1,-3,3,2,18,5,-2,-1
1615919179317804,0,0,-1,-5,-26,-5,9,1
1615919179317804,0,-3,0,6,8,13,-4,-3
1615919179338748,2,2,1,-2,-6,-5,16,3
1615919179338748,-2,1,2,-2,-6,0,-19,-1
1615919179340738,-4,-5,-1,-1,7,-4,8,-2
1615919179340738,-2,-2,-9,-3,25,-18,4,-4
1615919179352780,2,3,7,1,-16,-1,-4,1
1615919179352780,-1,-1,-8,0,17,7,10,-1
1615919179369446,-1,-1,3,1,-29,-7,-11,-2
1615919179369446,1,3,6,-1,43,18,4,1
1615919179376451,-2,-2,-11,3,17,-15,-7,-3
1615919179376451,-1,2,3,-4,-15,4,5,0
1615919179378424,-2,-2,-1,0,27,5,6,1
1615919179378424,-1,-3,-4,-2,-20,0,-31,0
1615919179399471,0,-3,1,-6,9,0,-1,-2
1615919179399471,0,-1,6,5,-5,2,0,0
1615919179401041,-2,1,5,-3,-16,-6,-5,-3
1615919179401041,1,0,-2,0,3,-16,10,1
1615919179412798,-2,-2,-6,-5,-1,-3,-7,-2
1615919179412798,-2,-4,4,1,0,-10,-13,-5
1615919179421782,3,0,2,2,13,18,-3,1
1615919179421782,1,-1,0,-1,-10,13,12,2
1615919179436739,-2,1,7,1,-13,2,3,0
1615919179436739,-1,0,-8,-4,-4,-14,-12,-1
1615919179437738,-1,0,-4,2,63,4,-2,1
1615919179437738,-3,-3,1,-7,-60,-3,-10,-3
1615919179459696,-1,-4,-4,2,52,15,-3,-1
1615919179459696,0,1,-1,-3,-13,6,5,0
1615919179460695,1,-1,-1,1,-22,-7,-5,1
1615919179460695,0,2,5,3,-15,2,5,1
1615919179473773,-1,-3,-1,3,1,-1,3,-1
1615919179473773,2,6,-2,-6,4,12,11,2
1615919179481540,-1,-1,7,4,-6,-6,-12,-1
1615919179481540,-1,-5,-7,-2,-5,11,13,-1
1615919179503664,1,2,2,0,-11,-19,-2,1
1615919179503664,-2,-3,-5,-1,29,18,10,-1
1615919179505659,-2,-2,-3,-5,-37,-1,-5,-3
1615919179505659,-1,0,1,2,11,-6,-3,-2
1615919179518771,2,6,10,3,3,14,5,0
1615919179518771,-2,-2,-7,-3,-6,-12,-7,-1
1615919179520768,-1,-1,-5,-3,-3,0,-3,-2
1615919179520768,-1,-1,-3,-4,19,6,5,1
1615919179532759,-3,-2,1,0,-5,0,9,-3
1615919179532759,2,3,3,0,10,-11,-24,0
1615919179541713,0,-3,-4,1,-24,-3,-4,-1
1615919179541713,-1,2,3,-2,9,8,-5,-4
1615919179557089,-4,-5,-9,1,-11,-13,-1,-2
1615919179557089,-1,-3,-1,-2,-25,-5,6,0
1615919179559340,-2,2,4,1,8,2,-1,-1
1615919179559340,-2,-1,-4,0,36,14,5,0
1615919179579696,-1,0,-3,-4,-4,-3,-2,-1
1615919179579696,0,-3,3,3,-4,0,-4,-3
1615919179581319,1,2,-4,-4,3,1,1,0
1615919179581319,-1,-3,-3,-3,-19,-6,4,-1
1615919179602112,-1,0,0,-4,-27,-4,-9,2
1615919179602112,-2,-4,-6,-2,21,10,7,-2
1615919179603312,-4,-5,-2,-3,-22,-15,-6,-3
1615919179603312,1,0,-3,-1,-6,-1,-3,-1
1615919179617143,-1,0,2,2,-4,-26,21,-1
1615919179617143,-2,2,2,-6,-1,6,-14,-2
1615919179618142,-4,-5,-6,-2,-5,-7,-5,-3
1615919179618142,-1,-1,3,6,-3,-5,6,-1
1615919179639551,-1,-3,-5,-4,-2,7,-5,-1
1615919179639551,0,2,-3,-1,-36,-2,12,3
1615919179640551,-1,-1,0,1,39,-2,-3,0
1615919179640551,2,0,-3,1,-13,1,7,1
1615919179662104,2,4,4,-1,4,6,-14,-1
1615919179662104,-1,-1,-2,-3,-25,-20,-3,-3
1615919179663650,-2,-3,0,5,40,6,-8,-4
1615919179663650,-1,1,-4,-1,5,-3,5,0
