timestamp,emg1,emg2,emg3,emg4,emg5,emg6,emg7,emg8
1615919192877216,-2,1,-7,-2,-17,4,2,0
1615919192877216,-1,4,0,0,38,3,-4,0
1615919192891898,1,4,9,0,-57,-3,13,1
1615919192891898,-4,-4,0,-3,-11,-10,-6,-4
1615919192898813,-1,-3,-1,0,25,1,-5,-2
1615919192898813,2,-3,-1,-1,6,4,10,3
1615919192914778,-2,-7,-11,-3,8,-6,-2,-3
1615919192914778,3,5,0,3,18,14,0,1
1615919192916773,-3,0,9,-2,-30,-23,-1,-4
1615919192916773,-2,-4,-9,3,-11,-9,-13,-4
1615919192936716,1,1,4,-5,17,8,9,-1
1615919192936716,1,3,-3,0,-4,-1,-10,-2
1615919192938711,-2,-1,3,-1,3,-1,6,-1
1615919192938711,1,1,1,4,-10,3,10,1
1615919192951873,-2,-7,-8,-3,6,-10,-17,-3
1615919192951873,-2,2,0,-1,20,-2,-1,-1
1615919192953842,1,0,-5,-3,-11,9,2,1
1615919192953842,-3,-1,0,-1,-5,-1,-3,0
1615919192974783,-2,-1,2,2,-16,-9,4,0
1615919192974783,-3,-6,-3,-5,4,10,-2,-5
1615919192975781,0,-4,-6,-2,13,-1,-7,-2
1615919192975781,-3,-5,-6,-4,-3,6,-1,-1
1615919192997996,0,1,9,2,5,-10,8,3
1615919192997996,-1,1,5,5,16,8,6,2
1615919192998807,0,2,-3,-2,-17,3,1,1
1615919192998807,-1,-1,1,-2,10,12,-3,-1
1615919193012597,-3,-4,-7,-2,-2,2,3,-1
1615919193012597,-3,-7,-5,-3,-30,-6,5,-2
1615919193013862,-3,1,5,1,-17,-1,-4,-4
1615919193013862,-1,2,-5,0,26,-12,5,0
1615919193034783,-1,3,4,1,-16,8,0,-1
1615919193034783,-2,-4,-8,-8,-21,-5,11,-3
1615919193035773,0,-5,-6,1,7,-1,-13,-1
1615919193035773,0,6,12,7,-11,-3,-2,1
1615919193057689,-2,0,-4,-2,-2,-5,1,0
1615919193057689,-2,-5,0,1,16,-4,0,0
1615919193059686,-3,-2,-5,-7,-39,8,-6,-2
1615919193059686,-2,1,7,-2,-6,-50,-10,-2
1615919193071775,1,-1,-6,4,10,19,8,2
1615919193071775,0,0,1,-1,20,-10,-9,1
1615919193078329,-1,1,-1,-1,-23,0,-2,-1
1615919193078329,4,1,1,0,19,9,8,1
1615919193094748,-1,-1,-2,-1,1,3,1,-1
1615919193094748,-2,-2,-8,-3,-42,-19,-3,-3
1615919193095977,-2,-4,-2,1,26,-2,6,0
1615919193095977,1,6,-1,-6,-2,10,-6,0
1615919193117877,1,-5,-8,-2,3,-8,6,0
1615919193117877,-2,-1,1,4,-3,11,-6,-3
1615919193118899,3,2,5,3,10,-3,0,1
1615919193118899,-3,-7,-3,-4,-34,-2,4,-4
1615919193131925,2,-3,-7,-5,9,21,-9,0
1615919193131925,0,3,0,0,4,-10,-2,1
1615919193138808,-1,-1,-1,-2,7,7,7,1
1615919193138808,1,-1,-2,1,-17,0,-8,1
1615919193154405,-3,2,3,-1,-23,1,14,-2
1615919193154405,-1,-6,-2,-2,11,-2,-5,-2
1615919193155973,1,0,-3,4,21,-11,13,-1
1615919193155973,-3,-5,-2,-5,-14,-4,-46,-3
1615919193177698,0,2,0,0,-14,2,13,-1
1615919193177698,1,2,-3,-3,4,-24,-11,-1
1615919193178698,0,2,15,2,8,5,-2,-2
1615919193178698,0,-3,-5,-4,5,4,10,2
1615919193191961,-1,-2,1,2,-33,-9,-11,-3
1615919193191961,-1,1,-4,-1,4,2,2,0
1615919193197975,0,-1,-4,-5,3,21,6,-1
1615919193197975,1,0,4,1,-1,-2,1,-1
1615919193214901,-1,0,-1,-2,-7,0,-7,-2
1615919193214901,-2,1,3,-2,-23,-5,2,0
1615919193215896,-4,0,-3,0,30,2,-6,-1
1615919193215896,-1,-5,-5,-4,9,9,8,-3
1615919193236875,-2,-1,-7,-3,2,-4,-6,-2
1615919193236875,3,5,11,5,7,14,22,2
1615919193238858,-1,-1,-2,-4,-52,-19,-46,-3
1615919193238858,-3,-2,-9,-1,27,-2,5,-4
1615919193251418,-1,-1,13,1,7,-7,-1,1
1615919193251418,-2,-5,0,-1,11,4,-2,1
1615919193258818,0,-1,-7,0,-6,-10,18,0
1615919193258818,1,2,4,-1,8,2,-3,-1
1615919193274799,-1,1,-3,-2,9,0,-6,-2
1615919193274799,-2,-3,-2,-4,-2,13,15,1
1615919193276772,1,-3,-3,-2,-1,-12,-12,1
1615919193276772,-1,0,-2,2,-2,-2,3,-3
1615919193297661,-5,-6,-4,-3,-17,-9,-2,-3
1615919193297661,2,3,0,3,45,1,-15,1
1615919193298662,-4,1,0,-2,5,2,20,0
1615919193298662,1,-1,-1,1,-11,9,1,0
1615919193311949,-1,-2,-1,3,-1,-3,-2,-3
1615919193311949,-2,-1,6,-3,-8,3,6,-1
1615919193318324,1,-4,-10,-4,14,-6,-7,0
1615919193318324,1,8,14,0,-19,-19,-1,0
1615919193334813,2,2,3,1,12,7,13,2
1615919193334813,-4,-4,-8,-3,-8,10,-6,-7
1615919193335811,-2,-1,1,1,35,23,6,-1
1615919193335811,-2,-5,-5,1,-6,-3,-2,-2
1615919193357701,0,-1,-2,-2,8,-12,-3,-1
1615919193357701,0,4,10,2,4,13,0,-1
1615919193359697,-2,-3,-3,-2,-23,-5,-3,-2
1615919193359697,-2,-2,-8,-3,12,-3,3,1
1615919193371314,-1,4,2,-2,-21,7,-5,1
1615919193371314,-1,-7,-2,-2,4,-13,1,-2
1615919193380212,0,-1,4,3,-11,1,-1,-2
1615919193380212,2,2,-3,-2,8,-9,0,0
1615919193394527,-2,-1,-2,-7,-28,-2,4,0
1615919193394527,1,-1,-3,1,9,-12,-4,-2
1615919193395926,-3,-2,-4,-1,-19,-6,-12,-3
1615919193395926,-1,-2,11,7,1,9,7,-1
1615919193417605,-2,-3,-3,-3,3,20,0,-1
1615919193417605,0,-1,-6,-6,-44,-36,-11,-2
1615919193418603,-1,2,9,0,33,23,7,-1
1615919193418603,4,-2,-9,-2,7,5,0,-1
1615919193431288,2,4,-1,2,-5,-7,-13,1
1615919193431288,0,3,-4,-7,-14,-6,3,1
1615919193440336,-1,-1,0,-1,-16,9,9,-2
1615919193440336,-2,-4,-3,-4,0,-16,-5,0
1615919193455013,1,-1,-3,-1,18,0,8,0
1615919193455013,0,-1,-5,0,3,10,-11,-2
1615919193455992,-1,-2,-5,-3,8,-19,4,0
1615919193455992,-4,-5,-3,-4,-8,20,7,0
1615919193477191,-2,-3,-4,-2,0,-19,-15,0
1615919193477191,-2,-2,3,5,1,11,-10,-3
1615919193479298,-1,0,0,-3,29,-26,-6,-2
1615919193479298,-2,1,-4,-1,-27,-1,17,-1
1615919193491360,-1,-2,-6,1,48,0,-21,-1
1615919193491360,-1,1,1,-1,-17,-3,0,1
1615919193499921,0,-3,-1,-1,-6,15,4,2
1615919193499921,-1,0,-1,-4,0,-12,-6,-3
1615919193514973,0,-2,-3,1,-1,-3,8,-2
1615919193514973,2,2,8,1,5,11,6,3
1615919193515880,-1,-1,-6,-2,-35,-20,-13,-2
1615919193515880,-1,-2,1,8,61,6,-2,-2
1615919193537698,-2,0,-1,-3,-12,2,2,-1
1615919193537698,-1,0,-5,-3,-33,-1,-1,-1
1615919193538698,3,2,5,2,6,10,6,0
1615919193538698,-3,1,3,-4,-19,-2,-8,-2
1615919193550986,-1,-5,-1,1,5,15,-2,-1
1615919193550986,-3,-4,-5,-4,10,-18,11,-3
1615919193559528,1,-1,-1,2,-41,4,-10,-3
1615919193559528,-1,2,-2,6,15,1,1,2
1615919193575108,2,-2,1,1,33,3,-1,0
1615919193575108,-3,1,-1,-1,-2,5,22,-2
1615919193576107,-4,0,0,-5,-20,-3,-4,-1
1615919193576107,-2,1,11,1,-21,-4,-5,-1
1615919193597642,-3,-5,-10,-5,-6,-6,5,-2
1615919193597642,-1,-5,-2,0,14,6,-13,-3
1615919193598641,-1,2,-3,-4,-6,-9,6,1
1615919193598641,-1,-2,-1,0,-14,-15,0,0
1615919193611210,0,1,0,-2,-34,-10,1,-1
1615919193611210,0,2,12,3,20,16,-4,-1
1615919193620193,-1,-5,-9,1,21,-21,4,-1
1615919193620193,1,-2,-4,-4,-11,-4,-16,-1
1615919193634153,-3,1,-2,0,-8,1,17,0
1615919193634153,2,2,1,1,-5,-9,-6,0
1615919193636147,-3,0,0,1,-4,3,2,-2
1615919193636147,-6,-8,-9,-6,-19,1,-2,-2
1615919193658121,-1,0,4,2,17,3,4,-2
1615919193658121,-1,-1,-8,-1,7,8,-10,-1
1615919193659843,-1,-2,-1,-2,3,-3,-1,0
1615919193659843,2,1,1,-2,-22,-1,9,3
1615919193671263,-4,-4,-2,4,69,11,-4,-2
1615919193671263,-3,-7,-4,-6,-30,-8,-4,-2
1615919193679370,1,5,3,2,15,18,-6,0
1615919193679370,0,0,-3,-3,-6,-7,-1,0
1615919193694915,1,3,11,1,-13,-22,-4,0
1615919193694915,0,-1,-8,-2,-1,3,-3,-1
1615919193695989,-1,-2,-3,-4,-15,1,4,1
1615919193695989,-2,3,1,1,22,10,-6,-1
1615919193724952,-3,-5,-2,-4,-19,-4,9,-3
1615919193724952,-2,-5,-9,-5,8,-2,-40,-4
1615919193725947,3,8,7,2,-6,-1,12,4
1615919193725947,-4,-7,-4,-2,8,5,3,-3
1615919193731246,-2,0,-5,-2,-21,0,-3,-3
1615919193731246,-1,-3,-1,-1,-3,2,7,3
1615919193740326,-1,-1,1,-1,31,-4,0,0
1615919193740326,1,-1,-2,-2,-4,1,-2,-1
1615919193754847,-2,-2,-7,-1,-38,29,5,0
1615919193754847,-1,0,4,4,21,-25,-4,-1
1615919193756819,-3,-3,-4,0,-9,-7,-7,-3
1615919193756819,1,-5,6,5,-2,-1,2,-3
1615919193777191,-1,2,2,-6,-23,8,-1,1
1615919193777191,2,1,-3,-2,-4,10,11,-1
1615919193779258,1,-4,2,1,-18,-10,-7,-2
1615919193779258,0,-2,-3,-2,38,7,-4,-1
1615919193791314,1,0,0,-3,-10,-20,-4,1
1615919193791314,-1,0,2,4,12,1,-9,-1
1615919193799895,-1,0,-2,-2,5,6,15,-1
1615919193799895,-2,1,-5,-8,-13,-1,-28,-2
1615919193814932,-1,-3,0,2,11,-12,-9,-2
1615919193814932,0,-2,1,-2,4,3,10,1
1615919193815862,-2,-4,-6,-2,-17,10,4,-2
1615919193815862,-1,0,-4,-2,16,1,6,-1
1615919193837658,2,2,13,3,-6,-12,-5,-1
1615919193837658,-2,0,2,0,-2,-5,-1,-1
1615919193839316,-3,-6,-12,-5,-7,-24,-13,-2
1615919193839316,0,0,1,-2,-9,10,14,0
1615919193860182,0,0,1,0,30,-4,-13,-1
1615919193860182,-2,-1,-8,0,-2,0,0,-1
1615919193862203,0,-1,6,0,0,-1,-1,-2
1615919193862203,-2,3,-1,-1,-1,-2,0,-1
1615919193874173,0,-3,-3,-1,-25,0,7,0
1615919193874173,-2,-1,0,-2,24,7,1,-1
1615919193876142,-3,-2,-13,-1,19,0,-8,-3
1615919193876142,-2,-3,2,-3,6,-9,-3,0
1615919193897109,1,-1,9,2,0,6,15,2
1615919193897109,2,3,1,5,-22,-11,-10,-2
1615919193899105,1,1,4,-3,4,7,18,2
1615919193899105,0,-1,-9,-1,-4,-2,-16,-1
1615919193920049,-1,2,5,-3,12,4,-5,-3
1615919193920049,-2,-6,-10,-6,-12,-10,9,0
1615919193921022,-4,-4,1,-3,-11,8,9,-1
1615919193921022,1,6,4,5,1,10,0,0
1615919193934225,-1,-1,-11,-4,-17,-1,1,-1
1615919193934225,-1,0,3,0,-1,-2,3,1
1615919193936220,1,-3,-3,-1,-15,7,-11,-1
1615919193936220,-1,0,5,-2,-5,-10,6,0
1615919193957163,0,0,-1,4,-18,-1,-6,-2
1615919193957163,-3,-3,-4,-6,12,-4,0,-3
1615919193959158,1,0,2,3,-3,-5,-6,0
1615919193959158,-2,-3,-3,2,-1,-2,2,2
1615919193980101,0,-1,-5,-4,-4,0,3,1
1615919193980101,0,-3,6,-4,-18,1,-6,-1
1615919193981099,-1,-3,-7,0,60,-11,-2,1
1615919193981099,0,2,4,-4,-45,-8,15,-2
1615919193994064,-2,-1,1,6,29,5,-19,-1
1615919193994064,0,0,-5,-3,-5,8,8,0
1615919194001046,0,5,6,3,6,0,-8,-1
1615919194001046,-1,0,-5,-1,5,-3,2,0
1615919194016800,-4,-7,-9,-2,19,1,6,-2
1615919194016800,2,1,-1,2,11,5,-5,0
1615919194018795,-1,-2,5,-2,-18,-6,-3,-2
1615919194018795,-1,-2,0,-2,-31,-4,7,-2
1615919194040087,-1,-1,-7,-5,22,1,-10,-2
1615919194040087,-1,-1,0,2,7,1,7,2
1615919194041060,-2,2,1,-2,-11,-3,1,-1
1615919194041060,-2,-3,2,2,14,-2,-8,-3
1615919194054025,-2,-4,-10,-4,-8,-8,-3,-1
1615919194054025,2,5,4,1,-4,6,2,1
1615919194061031,-3,-4,-11,-3,10,3,-4,-1
1615919194061031,0,1,7,-1,8,10,0,0
1615919194077619,3,-2,-3,-4,-35,-12,9,-3
1615919194077619,-5,-6,-8,-4,-24,-26,-28,-5
1615919194079017,1,2,6,3,-13,-12,-3,1
1615919194079017,0,-4,-6,-2,12,13,-2,-2
1615919194106913,-2,2,6,1,-19,-9,0,-1
1615919194106913,-1,0,-4,-5,-10,6,4,-2
1615919194108915,0,-1,2,0,10,11,0,-1
1615919194108915,1,-1,-3,-1,5,-5,0,0
1615919194113919,1,-1,-2,-1,-25,-24,-8,-2
1615919194113919,-5,3,11,3,44,12,3,-2
1615919194120882,-4,-3,-6,-4,-19,1,-8,-4
1615919194120882,-3,-1,3,2,34,2,0,-2
1615919194136866,0,-1,-1,-4,-1,7,-5,0
1615919194136866,-2,0,-4,1,-7,-1,2,-1
1615919194138834,1,1,6,-3,-4,-3,-4,3
1615919194138834,1,0,-8,-3,-31,3,5,0
1615919194159914,0,-1,2,2,13,-3,-3,1
1615919194159914,-1,-1,-3,1,10,-9,-6,-3
1615919194161937,-1,-1,10,5,-10,7,0,-1
1615919194161937,0,0,-7,-6,-4,-8,0,0
1615919194173903,-2,-1,-2,2,17,6,3,1
1615919194173903,-2,-9,-4,-2,-6,10,8,0
1615919194180640,1,4,-1,-4,-24,-5,-2,0
1615919194180640,-1,0,0,0,11,-2,-6,-2
1615919194197610,-3,0,3,2,-3,12,13,-2
1615919194197610,0,3,2,0,10,-5,-1,-2
1615919194198615,-3,-6,-6,-2,-9,1,-1,-2
1615919194198615,2,1,-11,0,-9,-10,-1,0
1615919194219843,0,0,1,-2,26,24,-4,1
1615919194219843,1,1,4,0,-43,-13,1,-1
1615919194221811,-1,-9,-9,-3,7,9,4,-1
1615919194221811,-1,0,1,0,1,-6,-5,-3
1615919194233809,0,0,-5,-1,-5,1,-4,1
1615919194233809,1,1,-2,-1,-13,-6,0,1
1615919194240782,-3,-4,-4,-5,-6,-7,3,-4
1615919194240782,-3,-4,-1,-2,-6,2,-43,-2
1615919194257711,-4,-3,-4,-3,-4,-8,-1,-4
1615919194257711,-1,0,6,2,18,3,-2,1
1615919194259727,3,3,-1,1,18,9,11,1
1615919194259727,-2,-2,3,-5,-1,-16,-7,-3
1615919194279931,-2,-4,-5,1,-7,-7,-5,-1
1615919194279931,3,1,-1,-1,-2,-5,3,2
1615919194280932,2,2,-1,-1,-2,11,-1,0
1615919194280932,-1,2,5,1,12,-4,12,1
1615919194293945,-3,-4,-4,-3,3,-6,-4,-2
1615919194293945,-2,-2,-3,-1,-1,4,1,-2
1615919194300871,-1,0,4,1,8,-2,-6,0
1615919194300871,-2,-2,-3,-4,-21,0,5,-3
1615919194316852,0,-1,-4,1,13,14,2,0
1615919194316852,-2,-4,-8,-3,0,7,-2,-3
1615919194318846,-1,4,6,2,-1,-5,-5,-1
1615919194318846,-2,-3,-4,0,15,7,19,1
1615919194340236,-1,-2,1,-3,-34,-7,-37,-3
1615919194340236,-1,-3,6,2,3,-1,0,1
1615919194341237,0,1,-9,-2,-16,-1,-4,-1
1615919194341237,2,3,10,3,-13,-2,11,1
1615919194353961,-1,1,-1,-1,48,-4,-3,1
1615919194353961,-1,-5,-2,-6,-29,-1,14,0
1615919194362916,-3,-5,-7,-1,3,2,-9,-1
1615919194362916,-2,0,0,1,-5,-5,7,0
1615919194375880,1,-1,-1,-1,-12,-9,1,-2
1615919194375880,-2,0,3,1,14,-4,-7,-2
1615919194384853,-1,-6,-3,0,15,1,2,-2
1615919194384853,0,0,2,1,2,6,-7,0
1615919194399889,3,7,10,-1,-1,12,25,1
1615919194399889,-1,-3,-7,-2,10,-14,-25,-3
1615919194400887,-3,-1,-4,-1,11,-9,-3,-2
1615919194400887,0,-3,-6,-1,-2,3,6,0
1615919194412910,-2,-5,4,0,-10,-1,0,-2
1615919194412910,0,2,-3,1,38,8,7,-1
1615919194421874,-1,-1,6,-1,-29,-7,-6,0
1615919194421874,-1,-5,-8,-4,-4,-4,-6,-2
1615919194436809,1,2,-6,-3,-3,2,12,2
1615919194436809,4,4,8,1,-8,-2,-2,0
1615919194438802,-3,-2,-1,-1,-3,-13,-3,-3
1615919194438802,0,1,3,-2,-20,1,2,0
1615919194459747,-2,-4,-2,-2,2,3,0,-1
1615919194459747,0,-1,-7,0,13,4,11,0
1615919194461828,0,0,4,-3,-7,5,-7,-1
1615919194461828,-1,-1,-3,0,10,7,-4,-3
1615919194472872,3,2,0,1,1,-2,-3,1
1615919194472872,-2,-5,-4,-5,-5,-31,-5,-3
1615919194482764,1,1,-2,-1,21,6,9,0
1615919194482764,-3,-7,-2,-3,5,7,-1,0
1615919194497580,-1,2,4,-1,2,-6,-9,-3
1615919194497580,-1,-3,-5,2,8,6,3,1
1615919194498586,0,-1,-3,-2,-23,-4,0,-2
1615919194498586,-2,-3,-4,0,5,-4,-6,-3
1615919194519386,1,-4,0,-1,13,-4,1,1
1615919194519386,-1,3,-2,-3,-12,10,11,1
1615919194525372,0,0,4,4,11,-8,-17,-2
1615919194525372,1,-1,0,0,-23,8,5,-1
1615919194533322,1,1,-1,-3,-1,-12,2,0
1615919194533322,-5,-7,-4,-5,-18,7,-4,-4
1615919194542319,-1,0,0,1,25,6,4,-3
1615919194542319,2,3,-4,-4,-4,-2,-2,3
1615919194557257,-2,-1,-2,5,-38,3,4,-1
1615919194557257,-2,0,1,-2,16,4,-5,0
1615919194559252,1,-1,-5,-5,-7,11,-4,0
1615919194559252,-2,2,3,2,13,-5,15,-1
1615919194580159,-4,-5,-11,-3,0,-9,0,-2
1615919194580159,-2,-2,1,1,-2,4,-6,-2
1615919194580915,0,1,4,-1,-1,-5,10,1
1615919194580915,2,1,-2,0,4,7,-4,-2
1615919194593375,0,0,-3,-4,-5,-22,5,-2
1615919194593375,1,3,1,1,-24,4,-5,-2
1615919194602827,-1,-2,-2,-1,-39,-6,-2,0
1615919194602827,-3,2,2,3,28,11,4,-1
1615919194616814,-1,1,5,-1,0,20,3,-1
1615919194616814,0,-4,-14,0,-30,-20,-10,0
1615919194618808,0,2,4,-2,-13,-4,1,-3
1615919194618808,-1,-4,1,-1,0,-2,-5,1
1615919194639769,-2,-4,-6,1,37,13,-5,-4
1615919194639769,-1,0,3,1,-3,6,-1,-3
1615919194641748,-3,-9,-15,-4,4,-4,2,-1
1615919194641748,-1,0,9,0,-1,-8,-2,-3
1615919194653733,1,2,0,-1,3,-6,-33,-2
1615919194653733,-1,-1,-2,-2,5,6,14,2
1615919194662688,-3,-4,-3,2,5,-11,3,-2
1615919194662688,0,-2,4,1,-26,-2,-6,-1
1615919194677678,2,4,1,1,-16,-10,6,1
1615919194677678,2,0,0,2,8,3,-1,0
1615919194678676,0,-1,-5,-4,6,9,-2,0
1615919194678676,-1,0,-2,0,-16,-14,1,1
1615919194699887,-6,-5,0,1,14,20,-1,-5
1615919194699887,0,-3,-1,1,1,4,1,-1
1615919194700956,1,3,4,-1,-2,3,5,1
1615919194700956,0,-8,-9,-7,1,-3,-1,-2
1615919194713902,-1,1,7,5,3,-23,12,-1
1615919194713902,0,0,-4,-2,-15,5,-44,-3
1615919194722891,1,1,6,4,19,5,-1,1
1615919194722891,-3,-3,-4,-3,-6,7,-1,-3
1615919194737800,-3,-5,-8,-5,17,1,1,-1
1615919194737800,-3,3,4,-7,-17,-6,9,-1
1615919194739784,3,2,12,4,-7,-14,-2,1
1615919194739784,1,6,0,-2,-3,-3,-12,1
1615919194760110,-4,-5,-1,-2,16,-9,1,-2
1615919194760110,-1,-4,-6,0,0,-4,4,0
1615919194761116,-2,-1,1,0,12,4,-1,-1
1615919194761116,-2,0,1,1,-3,0,-16,-3
1615919194782086,-2,-5,-6,-4,-23,-15,-6,-2
1615919194782086,3,1,-4,-3,16,13,22,3
1615919194784053,-3,-3,-8,-5,-20,-34,-9,-3
1615919194784053,1,5,17,12,-10,1,4,2
1615919194797524,0,-2,-6,-10,-5,10,18,-2
1615919194797524,0,-2,5,3,8,-10,-4,2
1615919194798527,-1,2,-2,-4,-8,6,4,0
1615919194798527,2,-1,-9,-4,0,8,5,2
1615919194819869,-2,0,5,-1,-11,-5,-5,-2
1615919194819869,1,-2,-3,-4,-14,-16,4,-1
1615919194821835,1,0,6,2,17,10,-1,0
1615919194821835,0,-3,-5,-5,11,0,4,3
1615919194841804,2,2,2,4,8,4,-5,-1
1615919194841804,-2,1,5,-2,13,3,-1,-3
1615919194843776,-3,-3,-6,2,-3,-3,-4,-2
1615919194843776,-2,3,-2,-3,10,0,0,-2
1615919194856765,0,-5,-5,-2,-48,3,1,1
1615919194856765,-1,-1,-1,2,27,-31,-1,-1
1615919194859734,-1,-2,1,0,4,8,2,0
1615919194859734,0,-4,-2,-1,12,1,-5,-2
1615919194880017,1,5,-1,-2,-21,-17,5,2
1615919194880017,-2,-2,-1,-5,22,17,9,-1
1615919194881012,-3,-4,-6,2,-21,7,-4,-1
1615919194881012,-1,0,3,2,24,3,4,-3
1615919194901832,-3,-1,1,-2,-9,-12,-9,-2
1615919194901832,-1,-4,-3,-2,-10,5,-4,0
1615919194903829,-1,5,-4,-2,2,6,8,0
1615919194903829,-4,-8,-5,-4,30,2,-8,-4
1615919194916893,0,2,3,1,-13,4,-5,-1
1615919194916893,-2,0,1,0,-19,3,14,-3
1615919194918890,0,-6,-5,-1,37,-9,-13,-1
1615919194918890,-2,-1,-3,0,-39,-17,-11,0
1615919194939862,1,3,6,1,27,18,28,2
1615919194939862,1,-3,0,-2,-12,0,-24,-2
1615919194941823,-1,1,-1,-2,-6,-3,-2,-2
1615919194941823,-2,-4,-9,-1,-6,-2,-1,-2
1615919194961769,0,-3,-3,0,5,-2,12,0
1615919194961769,1,4,2,2,-15,-3,-12,-1
1615919194963765,-2,-4,-4,-4,3,8,4,-2
1615919194963765,-1,-3,-7,-6,-9,-10,3,-1
1615919194976912,-3,-4,6,4,0,9,-7,-1
1615919194976912,0,5,-2,1,3,-3,1,-2
1615919194982842,-3,-2,-6,-1,-5,-10,-4,0
1615919194982842,-2,-3,-4,-3,17,7,0,-3
1615919194999895,0,3,8,0,-9,-14,-11,0
1615919194999895,-2,-6,-3,-3,19,27,6,1
1615919195000893,0,0,6,-3,-18,-8,-2,-2
1615919195000893,-3,-4,-6,0,-12,-9,-3,-4
1615919195021865,-3,1,-5,0,-1,1,7,-2
1615919195021865,-3,0,-2,-2,8,-3,-36,-1
1615919195023831,-2,1,2,-4,-17,1,10,0
1615919195023831,-2,0,3,6,13,-3,-5,2
1615919195036877,-4,-3,-8,-4,1,3,-16,-4
1615919195036877,-5,-3,0,-5,-3,3,6,-4
1615919195043881,-2,-3,-10,-3,-14,-8,10,0
1615919195043881,2,4,6,1,-13,-3,1,2
1615919195060235,0,-1,0,2,8,4,7,0
1615919195060235,1,-2,-7,-1,4,-3,-16,-1
1615919195062231,2,3,15,3,-11,2,8,3
1615919195062231,-1,0,-4,0,9,10,5,0
1615919195082273,0,-5,-6,-4,-7,-27,-11,-2
1615919195082273,-3,-2,4,0,-15,-11,9,-3
1615919195084271,3,5,-3,-3,-15,2,-7,1
1615919195084271,-1,-2,-5,-4,50,5,12,-2
1615919195097052,-2,1,5,4,-38,14,-6,-1
1615919195097052,0,-2,1,3,-7,-8,6,2
1615919195103082,-1,-3,-2,0,11,-2,-4,-1
1615919195103082,2,3,3,-1,-22,-8,5,0
1615919195119829,-1,-5,-4,-5,14,8,-1,1
1615919195119829,0,0,-3,0,-15,-8,3,-4
1615919195120828,1,3,10,6,7,1,3,1
1615919195120828,-3,-6,-7,-4,-8,-3,-6,0
1615919195141769,1,2,1,1,-3,-3,-8,-1
1615919195141769,0,-3,0,2,17,7,8,-1
1615919195143764,-2,0,0,-5,4,2,-5,-2
1615919195143764,0,-1,-1,-2,-26,-13,-10,-3
1615919195156799,1,0,0,0,9,-5,10,2
1615919195156799,1,1,-5,-6,-28,-13,4,3
1615919195163786,-3,-2,-1,1,-1,1,-18,-3
1615919195163786,1,4,1,-1,-16,-1,4,0
1615919195179718,-4,-3,7,3,-25,0,1,-1
1615919195179718,-3,-4,-2,-1,8,3,13,-2
1615919195181715,-4,-5,-6,-2,3,1,-29,-3
1615919195181715,1,5,3,1,-8,1,0,1
1615919195202677,-1,-3,-15,-4,-7,-2,-5,-3
1615919195202677,0,0,0,1,1,-2,-6,1
1615919195203836,-2,-2,1,-1,5,1,6,-2
1615919195203836,-2,-3,3,0,3,-1,0,-2
1615919195216937,1,-1,-9,-4,53,18,-5,-1
1615919195216937,2,4,2,0,-16,1,6,2
1615919195222949,2,-3,-5,0,11,-34,2,-2
1615919195222949,-1,-3,-1,-1,-19,-1,-4,-1
1615919195240110,0,2,1,0,33,0,2,2
1615919195240110,-2,-5,2,0,2,5,-4,-4
1615919195241115,1,4,-2,-3,-40,15,2,1
1615919195241115,-3,-2,-4,-1,49,10,12,2
1615919195262411,-1,0,-2,-3,-33,-17,-2,0
1615919195262411,-2,-1,-4,-6,-23,-2,-1,-3
1615919195264405,-3,-6,1,4,16,0,3,-3
1615919195264405,0,0,7,-1,-15,-7,1,1
1615919195276372,-2,0,-2,-3,2,13,11,-3
1615919195276372,0,-1,3,-1,-10,-15,-6,0
1615919195284350,-1,-4,-13,-6,23,17,-1,-4
1615919195284350,0,0,2,2,-19,-27,0,-3
1615919195299435,-1,-3,-1,-1,7,-4,-4,-1
1615919195299435,0,2,-3,-1,-12,-1,-4,-1
1615919195301017,2,1,-3,0,-8,4,6,2
1615919195301017,0,0,5,2,19,3,-7,-1
1615919195322431,0,-3,-1,0,19,0,-7,-2
1615919195322431,-2,-3,1,2,13,-5,-3,0
1615919195323431,2,3,-5,-7,-43,8,9,1
1615919195323431,2,-6,-2,-1,18,8,12,1
1615919195336402,2,4,-2,0,-20,-1,-41,0
1615919195336402,0,0,2,1,40,-9,4,2
1615919195345398,-2,-3,-1,2,9,3,5,0
1615919195345398,-1,1,-1,-5,-12,4,-9,-4
1615919195360698,-3,-2,11,4,-7,-7,2,-3
1615919195360698,-1,-2,-3,1,13,3,4,-2
1615919195362726,-2,-2,0,-3,-8,-31,-4,-1
1615919195362726,0,2,-7,-2,-18,-6,-19,-4
1615919195381809,1,1,-4,-4,8,3,3,0
1615919195381809,1,1,3,2,-6,-2,-2,1
1615919195396985,-2,-6,-3,-3,1,4,3,-1
1615919195396985,-5,-3,-1,2,43,3,1,-3
1615919195397504,0,-1,1,-2,-36,-7,4,-1
1615919195397504,1,1,-2,-1,9,17,9,0
1615919195404874,1,7,1,1,14,-15,-11,0
1615919195404874,-2,-6,-6,-5,-10,6,-3,-2
1615919195419830,0,-1,7,4,-17,-3,-2,0
1615919195419830,-3,-4,-9,-5,-21,9,18,-2
1615919195421803,-1,-2,4,-2,14,13,-44,-5
1615919195421803,0,-1,-6,0,-6,-9,11,-1
1615919195441824,-2,-1,-4,-1,31,-16,4,-2
1615919195441824,-1,0,1,-5,-47,2,-3,-2
1615919195443817,-3,-3,0,3,11,10,13,1
1615919195443817,-1,-1,-3,-3,-7,7,-6,0
1615919195456064,1,-1,-5,-1,-2,4,4,3
1615919195456064,-3,-1,-1,0,5,-8,-7,-3
1615919195464978,-2,-2,-5,-2,38,7,9,-2
1615919195464978,-3,-3,0,-4,-81,-8,-3,-2
1615919195480212,-3,-4,-5,-2,25,0,11,-4
1615919195480212,-1,2,-2,2,33,8,-17,-2
1615919195481212,4,6,11,3,-10,0,5,-1
1615919195481212,0,-1,-6,3,7,9,-8,0
1615919195502747,0,1,0,-4,-19,18,11,2
1615919195502747,0,-1,-5,-2,-9,-16,4,-1
1615919195503833,-1,0,3,-4,8,5,7,-1
1615919195503833,-3,-2,-1,0,4,-3,-8,-4
1615919195516320,1,0,3,1,-1,16,-1,2
1615919195516320,1,-1,-5,4,26,1,9,0
1615919195524301,-2,-2,-4,-3,-28,-12,8,-1
1615919195524301,0,2,3,-1,-9,-3,-10,0
1615919195540276,-3,-5,-5,-6,-1,-10,-3,-4
1615919195540276,0,2,4,-4,-3,2,-6,-1
1615919195541276,-3,-6,-2,3,-2,-1,3,-2
1615919195541276,0,-2,-4,-2,10,3,0,0
1615919195562690,2,6,1,-1,-20,9,-6,2
1615919195562690,-2,0,-2,-1,21,-17,-8,-2
1615919195564791,-2,-2,0,-5,-20,4,0,-3
1615919195564791,-1,1,2,2,2,-6,6,0
1615919195575786,-2,-6,-11,-3,10,-3,0,-2
1615919195575786,1,3,13,4,-5,7,-3,-1
1615919195584866,0,-3,-9,-1,0,-5,17,2
1615919195584866,-1,4,10,-2,-4,-13,-27,-4
1615919195599842,-1,-1,-2,-1,-11,0,-8,-1
1615919195599842,-2,-3,-3,-3,23,13,5,-1
1615919195600929,0,-2,0,-1,2,-10,-3,0
1615919195600929,0,-1,-5,3,9,11,9,0
1615919195621796,2,5,3,2,11,-7,6,0
1615919195621796,-1,-2,2,-2,-14,0,-7,-1
1615919195623765,-1,-1,-3,-1,10,-3,-6,0
1615919195623765,0,-3,-9,-4,1,17,6,1
1615919195636380,-1,5,13,2,-4,-40,-11,-2
1615919195636380,1,-3,-6,-7,-28,-14,7,1
1615919195645387,1,0,-4,0,21,13,-5,-3
1615919195645387,0,0,-1,-3,-7,0,10,0
1615919195660136,1,-4,4,2,0,2,9,1
1615919195660136,-2,-3,-1,-2,-2,15,-43,-4
1615919195661144,0,-1,-6,-5,-21,-19,-6,-3
1615919195661144,0,2,-2,0,7,5,5,-1
1615919195681867,-5,-4,-4,0,8,8,11,-2
1615919195681867,0,1,3,0,2,-11,1,-2
1615919195683755,1,1,-3,-1,3,4,-5,0
1615919195683755,-1,-7,-5,-3,-26,-7,0,-2
1615919195696367,1,0,2,2,5,14,-1,-1
1615919195696367,1,-2,-4,-3,-44,-25,-1,2
1615919195704825,-3,1,5,1,-1,-11,-7,-3
1615919195704825,0,1,-2,-5,6,-9,9,1
1615919195718784,-1,-4,-14,-6,16,5,-17,-2
1615919195718784,0,-1,-2,7,-4,5,18,0
1615919195725841,-1,2,5,-1,-2,5,0,0
1615919195725841,1,-1,4,1,-8,-9,1,1
1615919195742795,-1,4,1,-4,-6,0,0,-1
1615919195742795,-2,-5,-9,-6,-1,11,3,-3
1615919195743794,-4,-7,-6,2,-7,-11,7,1
1615919195743794,0,4,5,2,67,9,2,-1
1615919195764959,-1,-1,-4,-3,-33,-7,-12,-1
1615919195764959,0,-2,0,1,-2,4,14,-1
1615919195765957,0,2,6,2,2,4,-5,-1
1615919195765957,0,-2,-2,0,-25,9,-4,0
1615919195780283,-3,-3,-7,-2,36,-8,2,-1
1615919195780283,-1,-1,-4,-4,37,6,-6,-2
1615919195781282,0,-3,3,2,-7,-3,-2,-1
1615919195781282,0,4,11,5,-26,0,-1,-2
1615919195802063,-3,-4,-5,-5,4,-3,-2,-5
1615919195802063,-1,-2,1,-1,2,0,-3,0
1615919195803969,0,-2,-2,-7,-3,3,-2,-2
1615919195803969,0,-2,1,1,-7,-8,11,-1
1615919195825131,3,1,-1,-1,9,-3,-19,-1
1615919195825131,1,-1,0,-3,-3,-12,11,0
1615919195826128,-3,-5,-6,0,6,11,-32,-2
1615919195826128,-3,-1,3,-6,-36,-21,-17,-4
1615919195839303,1,0,-3,-1,-25,5,23,6
1615919195839303,-1,2,-8,1,-1,-16,-5,-3
1615919195841300,2,0,4,0,-1,9,14,3
1615919195841300,0,0,-1,-4,17,5,-2,0
1615919195862715,-3,0,-4,-4,8,5,-13,-3
1615919195862715,-1,1,-2,2,-9,-4,-3,-2
1615919195864788,2,5,3,2,-9,8,14,2
1615919195864788,-1,-3,-2,-3,-17,10,-1,-1
1615919195884915,1,1,1,2,-10,-4,9,-1
1615919195884915,-5,-5,-10,-4,16,11,-2,0
1615919195885912,0,0,-3,-2,-11,-12,-4,-1
1615919195885912,-2,-5,-3,-3,5,-5,-1,-1
1615919195898806,-3,-1,4,2,14,3,0,-3
1615919195898806,-1,0,2,-1,-21,-26,-5,-2
1615919195906312,1,-5,-3,-1,-1,0,-4,-2
1615919195906312,-4,3,-5,-1,-6,-4,22,0
1615919195922275,0,-3,5,-1,-24,11,-25,1
1615919195922275,0,3,1,1,24,6,-8,-1
1615919195924269,-3,0,1,-3,-11,-11,3,-3
1615919195924269,0,-4,-6,-1,11,-13,-3,0
1615919195945198,-1,-4,-4,1,3,3,16,-1
1615919195945198,-2,-1,0,-1,-35,5,-2,-2
1615919195946864,1,0,-4,-1,21,7,3,0
1615919195946864,-4,-6,-1,-4,-12,2,-12,-3
1615919195958926,0,-1,-2,-1,6,-8,0,-1
1615919195958926,-3,-2,0,-3,-11,9,-4,0
1615919195973828,-2,-2,1,1,-3,-6,4,1
1615919195973828,1,5,0,-1,-3,24,-1,0
1615919195982381,0,-2,6,4,-12,-32,5,2
1615919195982381,-1,-3,-3,-1,-5,1,3,-1
1615919195983381,-2,1,3,0,-21,2,14,1
1615919195983381,1,-3,-8,0,62,11,-23,1
1615919196004947,-3,-1,-8,-3,-5,-3,-3,-3
1615919196004947,-1,2,3,1,-1,3,-3,-1
1615919196005943,1,-3,2,-2,8,-12,5,-1
1615919196005943,-1,0,-2,-1,17,-9,0,-2
1615919196018803,-2,-4,-6,0,-5,17,1,0
1615919196018803,-1,5,2,1,19,-9,-6,-1
1615919196026433,-3,-2,-5,-2,14,1,-11,-4
1615919196026433,0,0,-3,0,-10,1,-4,1
1615919196050094,2,-2,-3,-4,-17,-5,1,-1
1615919196050094,-2,-4,4,2,30,21,1,-1
1615919196051817,-1,2,1,-1,-23,-10,-7,0
1615919196051817,2,0,2,-4,-35,-8,0,1
1615919196065257,0,2,-2,4,28,16,2,-1
1615919196065257,1,1,6,2,-3,0,3,2
1615919196067100,-3,-4,-5,-3,2,-1,-6,-3
1615919196067100,-1,-2,-2,2,10,-1,18,0
1615919196079565,0,1,13,2,-11,-7,-16,-2
1615919196079565,3,4,-1,-4,-12,-4,5,0
1615919196086341,-2,-1,-2,2,10,16,-8,-4
1615919196086341,-2,2,1,-1,-25,-22,6,0
1615919196102240,-4,-5,-4,-4,-8,9,-1,-1
1615919196102240,0,-3,-1,-4,-4,-5,-4,1
1615919196104230,2,0,2,-3,12,9,-3,-1
1615919196104230,3,3,5,2,-8,-25,-1,0
1615919196124421,0,2,9,-1,-7,-9,2,0
1615919196124421,-1,-7,-6,-6,-24,-3,1,-3
1615919196126391,-1,0,-6,-2,-1,-2,-8,-2
1615919196126391,-3,-5,-2,2,4,10,-12,-2
1615919196139585,-3,-5,-6,-1,-7,3,4,-1
1615919196139585,-1,1,5,-2,-1,-8,6,-1
1615919196153010,-2,-4,-9,-7,-2,4,2,-1
1615919196153010,-2,0,1,5,13,6,0,0
1615919196162567,-3,1,1,-2,9,-8,-3,-1
1615919196162567,1,2,-4,-1,12,2,-6,-1
1615919196164563,-1,-2,-5,-4,2,0,22,1
1615919196164563,-2,-3,-7,-5,6,10,-27,0
1615919196184562,-1,4,6,0,2,-38,-6,-2
1615919196184562,-2,-4,-7,-3,-21,4,-3,-1
1615919196186580,0,-1,4,3,22,-2,4,2
1615919196186580,0,1,1,-2,-25,-4,14,-2
1615919196198810,-1,-2,-7,-3,2,10,5,-1
1615919196198810,0,2,5,1,0,-5,-10,-1
1615919196205962,-1,1,-1,0,-18,-6,-1,1
1615919196205962,-3,-5,3,-1,15,1,-1,-4
1615919196222830,3,-2,-5,-1,5,14,-5,2
1615919196222830,-2,1,-5,-2,-12,-11,2,-1
1615919196223830,1,2,3,2,1,-2,-6,-1
1615919196223830,-3,5,2,1,25,4,5,2
1615919196244899,-1,1,3,1,-27,6,3,-4
1615919196244899,-3,-10,-6,0,50,-11,0,-2
1615919196245959,-2,-1,-10,-4,2,1,-1,0
1615919196245959,-2,-6,-6,-6,-7,13,-1,-2
1615919196259447,-1,3,3,-2,-20,-26,0,-3
1615919196259447,-4,-5,0,2,45,16,-4,-1
1615919196267425,3,6,6,-3,-5,0,2,1
1615919196267425,0,-4,-2,3,6,3,-1,0
1615919196282433,0,1,-1,-3,7,11,-1,0
1615919196282433,1,5,2,3,-15,0,11,1
1615919196283433,-2,-1,1,-4,-25,-14,-6,-2
1615919196283433,-3,-1,-2,1,20,9,-5,-4
1615919196305147,0,-2,11,3,26,-2,6,-1
1615919196305147,-1,2,-1,-3,-15,-1,-4,0
1615919196306153,-3,-4,-8,1,-5,5,-5,-3
1615919196306153,0,-1,-2,-5,-16,-2,6,1
1615919196327123,-2,-2,-7,-1,-7,-9,-12,-1
1615919196327123,-2,0,6,0,9,29,22,2
1615919196329089,-2,-2,-1,0,18,-27,-34,-4
1615919196329089,-1,0,3,1,-11,-14,2,-2
1615919196341917,0,-4,-13,-6,-5,3,2,-1
1615919196341917,-3,-6,3,0,-16,-1,2,-3
1615919196343888,0,2,-2,0,-29,-1,4,-3
1615919196343888,4,4,0,-2,8,-5,1,3
1615919196365284,-3,-4,-7,-2,7,0,-3,-3
1615919196365284,3,-2,-5,0,-22,-17,-8,0
1615919196368183,-1,0,4,0,17,16,6,0
1615919196368183,-3,-2,-5,-5,-22,-14,-5,-1
1615919196378914,1,-2,3,4,-4,8,2,0
1615919196378914,1,-2,-5,-1,-4,-24,-4,-1
1615919196387194,-1,4,3,3,10,5,-4,-1
1615919196387194,1,-5,1,-2,-35,4,11,0
1615919196402791,0,-1,-5,-3,4,2,-3,-2
1615919196402791,2,1,0,0,9,-3,-7,-1
1615919196403790,0,-1,-1,0,-10,1,8,2
1615919196403790,-5,-4,-5,-2,19,-4,-12,-5
1615919196425208,-4,-2,0,0,0,-1,15,1
1615919196425208,2,2,4,-2,-19,2,-25,1
1615919196426207,-3,-2,-2,3,35,-3,-5,-3
1615919196426207,0,2,2,-3,-10,1,5,1
1615919196438827,0,-2,-6,-5,2,9,7,2
1615919196438827,-1,0,5,2,-4,0,7,-1
1615919196447054,-1,2,0,0,-24,-13,-4,0
1615919196447054,0,-2,0,2,2,-6,-15,-3
1615919196462669,1,1,3,-1,-1,-18,-3,-2
1615919196462669,0,-1,-6,2,9,5,-1,-2
1615919196464650,-4,-4,4,-6,11,9,5,0
1615919196464650,2,1,-4,2,-5,3,5,2
1615919196484590,-2,-1,-9,-5,-11,-12,-3,-1
1615919196484590,-2,-3,-3,-1,-10,7,15,-1
1615919196486584,-2,-2,3,2,5,-7,-34,-2
1615919196486584,-1,0,-4,-2,5,3,-1,-1
1615919196498627,-2,-1,7,1,9,6,-4,-1
1615919196498627,-1,2,-6,-6,-5,-7,5,0
1615919196507039,0,-2,1,0,-16,6,1,-2
1615919196507039,-1,0,0,1,5,-4,3,0
1615919196522007,3,2,4,0,1,-9,-11,-1
1615919196522007,-3,0,-1,-3,-12,3,9,2
1615919196524000,1,-5,-7,-5,0,13,11,0
1615919196524000,0,-3,6,4,18,2,-7,-3
1615919196545162,-2,-1,-2,5,-30,-4,7,-1
1615919196545162,-1,-3,8,0,14,11,-2,-2
1615919196546166,0,-4,-9,-8,-19,-8,-8,-3
1615919196546166,-2,1,-3,1,-30,-2,1,3
1615919196558033,2,-3,-3,-3,51,11,-1,-1
1615919196558033,-4,0,-1,-1,4,-1,-4,-3
1615919196567007,1,2,1,3,-12,-3,5,2
1615919196567007,-2,0,0,-2,0,9,5,-4
1615919196581964,1,-1,-1,-4,-12,-2,-1,2
1615919196581964,1,1,-1,1,13,-10,-8,0
1615919196583959,1,-1,-8,-2,1,-2,14,2
1615919196583959,-4,-4,0,-1,-1,-31,-9,-3
1615919196604772,0,-1,0,1,-7,6,7,-1
1615919196604772,-1,-3,-9,-2,10,13,-5,-3
1615919196606831,0,4,8,-1,22,-15,-3,-3
1615919196606831,0,-4,-8,-4,-11,7,-1,0
1615919196618778,-4,-3,-2,-3,-10,-6,-1,-1
1615919196618778,-2,-3,4,2,26,-9,-4,-2
1615919196632922,-4,-8,-5,-1,9,14,6,-2
1615919196632922,1,0,-2,-3,-5,-7,-7,-2
1615919196642822,1,1,0,-1,3,4,-2,-2
1615919196642822,1,3,3,-4,-18,3,12,0
1615919196643822,0,-2,-8,3,25,16,-27,0
1615919196643822,-1,-2,0,0,-2,-12,-1,-2
1615919196664908,-1,3,0,1,-6,12,-1,0
1615919196664908,0,-3,-4,-1,-17,-1,4,1
1615919196666877,2,-3,0,-4,-31,-1,7,0
1615919196666877,-1,6,7,0,12,-4,0,-1
1615919196687055,-1,-1,-2,-2,-1,-3,-10,-2
1615919196687055,-1,-2,-1,-1,18,14,0,-1
1615919196689422,-1,-1,-3,1,-5,-28,2,-1
1615919196689422,-1,-5,-3,-4,19,16,-1,-1
1615919196701721,2,2,2,1,-4,-11,2,1
1615919196701721,1,-3,0,-4,-14,7,-2,-1
1615919196709699,-1,-1,-3,1,4,-5,4,0
1615919196709699,0,-1,4,2,22,2,3,-2
1615919196724901,0,-3,-13,-8,-1,9,-3,-1
1615919196724901,-2,-2,-10,2,-16,-18,-3,-2
1615919196726928,1,5,7,0,-27,-1,3,2
1615919196726928,0,-3,-1,-1,-21,0,7,0
1615919196747802,-1,-5,-4,-3,19,-2,2,-1
1615919196747802,1,-3,-6,-6,-22,-1,11,0
1615919196748802,-5,-1,4,2,12,4,-13,-4
1615919196748802,1,2,-1,-3,10,-3,-3,1
1615919196762574,-3,-5,-5,-3,-32,2,-5,-2
1615919196762574,-3,0,3,-2,-28,-5,16,-1
1615919196763656,1,-5,-7,0,46,17,8,-1
1615919196763656,4,8,3,1,-1,-1,-5,-1
1615919196784593,-1,-3,-1,0,1,-9,-5,0
1615919196784593,-2,-1,-1,-3,-3,-7,-16,-2
1615919196786586,-4,-7,2,-1,-5,-24,1,-4
1615919196786586,-3,-3,-6,0,3,1,4,0
1615919196807687,3,3,5,-1,-4,0,-8,0
1615919196807687,1,0,-2,-1,17,0,-11,-2
1615919196808604,-1,-1,-2,-1,-7,4,4,0
1615919196808604,-4,-7,-8,-6,-11,2,-3,-1
1615919196821578,0,3,3,10,15,0,9,1
1615919196821578,0,1,6,1,14,-7,-18,-2
1615919196828558,0,-1,-8,-2,-23,4,16,1
1615919196828558,-1,2,11,2,-22,-5,1,-3
1615919196845295,-2,-5,-4,1,44,18,-5,-1
1615919196845295,0,-1,-2,1,-6,1,0,-1
1615919196846917,1,4,2,1,19,-3,0,-2
1615919196846917,-3,-3,-4,-3,-7,-5,-5,-1
1615919196867837,-1,-1,8,0,-20,-2,3,-2
1615919196867837,3,4,-5,-1,2,2,-3,2
1615919196869831,1,5,11,0,-33,-4,1,1
1615919196869831,-4,-9,-4,-3,15,7,3,-2
1615919196881798,0,6,-1,1,-8,-9,-10,-3
1615919196881798,-2,-3,-2,1,6,9,6,2
1615919196888780,-1,0,1,-3,-40,-7,-2,-2
1615919196888780,0,-4,-5,-1,16,-1,13,-1
1615919196904855,-1,1,-3,-3,-31,-2,-31,-3
1615919196904855,-1,-3,-2,-1,-11,-4,-1,-1
1615919196906824,0,0,5,0,24,4,-2,1
1615919196906824,2,4,-4,-1,37,2,2,-1
1615919196926797,-3,-3,-3,-5,-18,-25,1,-4
1615919196926797,0,0,-4,1,12,-2,-1,-3
1615919196928768,-1,-4,-6,-4,-8,-21,-17,-2
1615919196928768,0,-1,-1,1,-27,5,2,1
1615919196942016,2,-3,-4,-4,48,6,7,0
1615919196942016,0,0,3,-2,1,-7,-5,-1
1615919196948982,-3,-4,-5,-3,-22,-5,5,-2
1615919196948982,2,5,4,-1,-4,-7,-9,1
1615919196965034,0,-1,-2,1,-4,12,0,-1
1615919196965034,-2,-2,-4,0,1,-13,16,1
1615919196967006,1,4,1,-3,6,19,-43,-3
1615919196967006,-2,-3,-1,0,7,-14,-7,0
1615919196987948,-3,-5,-7,1,19,8,6,-2
1615919196987948,-2,-2,4,-2,9,-4,-1,-1
1615919196988946,-2,0,-3,0,9,11,16,0
1615919196988946,0,-1,-4,0,-20,7,-5,-3
1615919197000928,-2,-2,1,0,0,3,2,-1
1615919197000928,-3,-3,3,-3,-15,-6,-9,-4
1615919197010000,1,2,0,-1,14,-4,12,1
1615919197010000,-2,-5,-9,-2,6,-1,-6,-2
1615919197024960,-1,3,1,0,-9,-2,11,4
1615919197024960,-2,-4,-2,1,-19,6,-5,-2
1615919197025958,-2,-2,-4,-5,7,1,3,-1
1615919197025958,-1,-2,0,-2,-14,-10,-3,1
1615919197047746,-1,-1,-2,0,7,-1,-2,-3
1615919197047746,-1,-1,-1,0,-8,-5,-7,-2
1615919197049018,0,-2,-2,-2,-19,-7,-4,-4
1615919197049018,-1,0,4,4,2,-4,6,-1
1615919197061154,0,-2,-4,-2,-10,12,15,0
1615919197061154,2,1,2,-3,-26,-13,-38,-2
1615919197068113,1,1,-6,-3,1,-24,20,2
1615919197068113,2,3,3,6,14,9,-6,-1
1615919197092801,-2,-1,0,0,-3,1,-6,-2
1615919197092801,-3,-2,-2,-1,-7,7,10,-1
1615919197093800,-2,-4,-1,-3,17,10,0,-1
1615919197093800,1,1,-2,2,-15,0,9,2
1615919197107792,-1,1,13,2,-8,-13,-6,0
1615919197107792,1,-1,-5,-2,41,12,3,1
1615919197108791,-2,-3,0,0,-29,-7,-6,-4
1615919197108791,-1,0,-2,-2,13,14,0,-3
1615919197121780,-3,0,-6,-4,-11,-11,2,0
1615919197121780,-2,-2,3,2,4,-10,1,-1
1615919197128912,-1,-1,-3,1,21,29,3,2
1615919197128912,1,0,7,-5,-51,-16,-7,0
1615919197144651,-2,-3,-7,-2,-6,2,3,-1
1615919197144651,1,1,-2,-4,1,-1,-11,1
1615919197146158,-1,2,1,3,-4,10,4,-2
1615919197146158,0,-1,0,2,18,-5,-3,0
1615919197166886,0,-5,-5,-3,4,-2,4,1
1615919197166886,-6,-4,0,-4,-30,2,11,-3
1615919197168880,0,-2,-4,-4,7,-3,-7,-1
1615919197168880,-1,3,-4,-2,-3,-3,-1,2
1615919197181002,-1,1,11,3,-4,-4,5,-1
1615919197181002,-3,-1,3,3,46,12,20,-1
1615919197190107,-1,-5,-5,-2,-27,-22,-12,-1
1615919197190107,-1,-1,7,-2,5,0,1,-3
1615919197204874,0,3,-2,-1,-2,1,-7,0
1615919197204874,0,-1,-1,-1,8,20,4,2
1615919197206813,0,1,1,-1,-16,-13,-1,-3
1615919197206813,-4,-3,-2,-3,-26,-11,0,-2
1615919197227821,-2,-3,-8,-5,-7,3,-5,0
1615919197227821,2,-1,6,1,-7,-3,3,0
1615919197229456,1,7,7,-2,8,1,3,1
1615919197229456,-3,-4,-9,-2,2,-1,-9,-5
1615919197241513,2,0,-1,-3,0,9,13,2
1615919197241513,-3,-4,-5,2,-2,-10,-8,-5
1615919197250413,-3,-6,-3,-4,-1,-10,0,-2
1615919197250413,-2,0,-4,-1,-6,2,4,-2
1615919197264865,0,-1,-6,2,-23,-2,-8,-2
1615919197264865,-1,4,0,-3,19,0,4,1
1615919197267857,0,-2,-4,1,16,9,4,1
1615919197267857,0,-7,-7,-4,12,-2,-5,-2
1615919197287204,-2,2,1,1,-5,-5,-2,-4
1615919197287204,-2,-1,0,-3,-8,-18,-7,-3
1615919197289368,0,-1,-5,-1,-13,-1,-5,-2
1615919197289368,-1,1,4,3,20,11,4,-1
1615919197301274,-1,-2,-3,-2,5,-14,6,0
1615919197301274,-2,0,6,-2,-14,-1,-10,-1
1615919197309631,-1,-2,1,0,5,5,-7,-2
1615919197309631,-3,-6,-3,-2,6,0,-1,-2
1615919197324619,3,-1,-2,-3,18,1,4,2
1615919197324619,0,-1,4,0,10,7,16,1
1615919197326589,-1,0,-5,-3,-12,-9,-12,0
1615919197326589,-1,-4,-7,-3,3,4,-3,-2
1615919197347742,0,3,9,5,-3,6,-8,-2
1615919197347742,2,1,-8,-3,6,5,16,2
1615919197348742,-3,-6,-1,1,13,-19,-9,-1
1615919197348742,1,2,-4,-3,6,15,0,-1
1615919197369412,-3,-5,-6,-2,-3,-19,-8,-4
1615919197369412,1,0,-4,-1,0,2,-5,1
1615919197371381,0,6,2,5,-31,22,8,0
1615919197371381,-3,3,-1,-3,15,5,1,0
1615919197384404,-7,-5,-3,-2,-10,-4,-3,-2
1615919197384404,1,2,4,2,28,-3,-11,-4
1615919197386397,-2,-4,-3,2,39,6,3,-2
1615919197386397,-3,-2,1,-5,-36,-11,1,-2
1615919197407759,-1,-3,-6,-1,25,13,2,1
1615919197407759,0,1,-2,-1,-17,-8,7,0
1615919197409390,-1,-1,2,2,29,-1,-20,1
1615919197409390,0,-2,-4,0,12,21,-6,-1
1615919197421356,0,1,2,-3,-43,-44,-13,-4
1615919197421356,-2,-3,-10,-3,-4,11,10,2
1615919197437546,0,2,2,-4,-16,-6,10,0
1615919197437546,0,-1,0,-1,18,-6,8,4
1615919197445307,-1,3,6,0,7,7,-10,-2
1615919197445307,0,-1,-2,1,-19,-14,-8,-2
1615919197446955,0,0,-1,-4,4,12,14,2
1615919197446955,-2,-4,-8,3,17,-7,2,-2
1615919197466980,1,0,-5,-6,-20,-1,-12,-2
1615919197466980,-1,2,16,6,21,-2,-3,-1
1615919197468974,-4,-7,2,-2,-10,5,5,-2
1615919197468974,2,1,-2,0,-38,-15,-11,-2
1615919197481425,1,3,4,0,21,24,40,6
1615919197481425,-1,-4,-5,-5,-20,0,-49,-5
1615919197489718,-2,-5,-8,-2,-6,-10,-4,-3
1615919197489718,-3,-2,12,0,-8,-4,10,-1
1615919197505002,0,3,2,0,7,5,-7,-1
1615919197505002,0,-1,-6,-3,-5,-13,2,-1
1615919197506004,0,0,-3,-1,5,2,1,-1
1615919197506004,-2,1,0,-4,-1,5,6,-2
1615919197527768,-1,-2,5,1,-17,12,1,1
1615919197527768,-1,-1,-9,1,10,-4,9,-1
1615919197528769,-1,-1,-2,-2,13,-13,-5,-2
1615919197528769,0,4,14,5,-4,-8,2,1
1615919197541516,-3,-8,-10,-2,-2,20,-4,-2
1615919197541516,-2,2,1,-1,10,-19,11,-1
1615919197549497,0,-3,-2,-1,-17,4,-31,-4
1615919197549497,0,-1,-3,-4,12,3,-10,-2
1615919197564979,-1,1,0,-1,7,1,0,-2
1615919197564979,-2,-6,-2,-1,-17,3,1,-1
1615919197565977,-3,-1,-7,-1,-4,2,8,-1
1615919197565977,3,6,8,2,9,1,1,3
1615919197587743,-2,-8,-3,0,12,-8,-8,-4
1615919197587743,0,-4,-8,-7,-30,1,-9,0
1615919197588746,1,6,17,0,7,-7,10,1
1615919197588746,-2,-7,-14,-2,3,4,-4,-2
1615919197601485,1,1,1,-4,-17,-7,6,-1
1615919197601485,-4,-1,4,3,25,13,2,-2
1615919197609740,-2,-2,1,2,-12,3,1,-4
1615919197609740,-4,-1,-5,-3,-1,-5,-5,-2
1615919197624798,-3,2,-2,-2,-7,-34,0,-2
1615919197624798,0,-5,-5,-2,-18,6,-20,-2
1615919197626819,-1,1,2,0,-4,7,19,-1
1615919197626819,-1,-3,-10,-3,-3,-6,-32,-3
1615919197647688,0,1,5,0,4,9,-2,-1
1615919197647688,1,2,3,-1,-5,-3,2,-1
1615919197649342,-1,-2,-2,2,9,-2,3,-1
1615919197649342,0,-4,-1,-3,2,6,2,0
1615919197670282,-1,-3,-7,1,-1,-5,1,0
1615919197670282,-1,2,6,-1,-27,3,-2,0
1615919197671280,0,-3,-11,-7,1,6,5,0
1615919197671280,0,3,11,4,-58,3,9,1
1615919197685315,-1,-2,-7,-2,19,-27,-13,0
1615919197685315,-2,1,-3,0,-7,7,8,-2
1615919197686239,0,-2,-2,-1,-7,-9,0,0
1615919197686239,-2,-2,-3,-3,2,7,0,-3
1615919197706937,-1,1,5,1,-2,7,14,0
1615919197706937,0,-2,-6,-2,-5,-11,-19,1
1615919197714918,-2,0,-3,-2,-6,-13,-2,-3
1615919197714918,-1,0,-3,-3,6,-8,1,0
1615919197730342,1,-4,-1,2,9,19,-3,0
1615919197730342,-3,-1,-5,-2,-5,-13,9,-2
1615919197731341,2,1,0,-2,8,4,-6,1
1615919197731341,-1,-1,0,-3,-17,-3,4,0
1615919197745312,-1,-7,-2,-2,42,3,-4,-3
1615919197745312,1,1,-4,-2,-18,0,-1,-1
1615919197746957,1,2,5,5,28,12,-1,0
1615919197746957,-2,-4,1,-4,11,-32,-2,-3
1615919197767007,-2,-3,-8,-1,-30,-2,3,2
1615919197767007,1,2,7,3,10,12,3,-1
1615919197768978,0,-4,-1,-1,-15,-5,-8,0
1615919197768978,-1,-2,-4,0,45,10,0,-2
1615919197790362,-1,-1,-2,-4,-9,-4,-2,0
1615919197790362,-1,-4,0,1,6,-7,0,-2
1615919197791361,1,4,-1,-4,-19,7,9,1
1615919197791361,0,-3,-6,2,22,6,18,1
1615919197804412,0,2,9,0,-3,4,-44,-2
1615919197804412,0,-1,-1,-6,-10,-2,0,-3
1615919197811446,-1,-3,-2,3,19,-7,3,0
1615919197811446,-2,0,2,1,-3,5,5,-2
1615919197827527,-1,-2,-12,-1,11,13,3,1
1615919197827527,0,4,10,-2,10,-22,1,-3
1615919197828625,-2,-1,-1,1,25,13,-10,-1
1615919197828625,1,1,-2,1,3,3,0,3
1615919197850229,-2,-4,-1,-5,-30,9,9,0
1615919197850229,-3,-3,-5,-4,3,4,0,0
1615919197851177,-2,3,-1,-3,-44,-8,7,-1
1615919197851177,-1,-3,0,2,37,1,-15,-2
1615919197864007,-1,-2,0,-2,0,-9,3,-3
1615919197864007,0,-3,-4,1,-6,-1,1,0
1615919197870989,-1,2,2,-2,4,3,-2,0
1615919197870989,1,-3,7,-1,-18,-6,-5,-3
1615919197887122,0,2,3,2,12,-10,1,-3
1615919197887122,-1,-2,-8,-2,-21,-4,11,-1
1615919197889484,0,-3,2,0,1,25,-12,-2
1615919197889484,-4,-2,-5,-1,-8,-20,-4,-2
1615919197909845,0,8,0,0,2,14,4,1
1615919197909845,0,-1,1,-1,19,5,2,0
1615919197911834,-3,-5,-1,2,-10,-6,5,-1
1615919197911834,2,1,-7,-3,5,8,2,2
1615919197923774,-3,-1,5,3,-15,-20,-5,-4
1615919197923774,-1,-1,-6,-1,12,13,8,0
1615919197931484,-1,-4,-4,-6,-10,-17,-9,-2
1615919197931484,-2,-3,-5,0,-10,7,-1,-1
1615919197947833,-1,-3,-5,-1,-9,1,5,-1
1615919197947833,0,-5,-8,0,30,4,-6,-1
1615919197948807,1,3,9,-3,-21,-10,0,-1
1615919197948807,-1,2,9,4,-19,-2,-3,-3
1615919197969864,1,3,-2,-1,-4,6,1,2
1615919197969864,-1,-4,-4,0,28,5,5,0
1615919197971888,2,0,-2,-2,-5,-7,4,0
1615919197971888,-3,-2,-10,-1,-22,2,1,-3
1615919197983892,3,2,13,5,6,-3,6,3
1615919197983892,-2,0,-3,-2,0,6,-1,-3
1615919197991503,-1,-4,-3,0,7,-3,5,0
1615919197991503,1,4,-2,-2,-3,-3,-2,1
1615919198007742,-2,-2,-2,-5,-5,0,3,-2
1615919198007742,0,-2,-3,1,18,12,1,3
1615919198008744,-3,-4,-3,-3,-9,-10,-7,-3
1615919198008744,1,-1,4,-5,-9,-9,-4,0
1615919198030026,1,0,1,0,15,9,-2,0
1615919198030026,-1,3,4,2,-13,9,0,0
1615919198031919,-2,-2,4,0,6,4,-1,-1
1615919198031919,-1,-6,-11,1,21,9,5,0
1615919198043838,0,0,18,4,-2,-17,-1,-1
1615919198043838,-1,-2,-7,-2,-12,4,-6,-3
1615919198051388,0,1,-5,0,38,-2,5,4
1615919198051388,-1,0,5,2,-16,-4,1,0
1615919198066837,-1,-2,-10,-5,6,2,11,-1
1615919198066837,-1,-3,4,1,-26,-15,-11,-2
1615919198068807,-2,1,-1,-3,-3,5,-1,-3
1615919198068807,-1,-2,0,-3,-1,-3,1,2
1615919198090758,-3,-5,-13,-1,4,1,4,-1
1615919198090758,-2,3,2,-4,-20,-4,-2,1
1615919198095884,-2,-4,-3,-1,-11,-10,-3,-3
1615919198095884,-1,-1,3,-4,-17,2,4,-1
1615919198104351,-4,-3,1,5,28,-6,-7,-3
1615919198104351,-2,3,8,2,-8,-12,-7,-3
1615919198110481,-1,-5,-4,-3,-16,-5,0,1
1615919198110481,1,2,-3,-1,22,18,0,-1
