timestamp,emg1,emg2,emg3,emg4,emg5,emg6,emg7,emg8
1615919184220627,1,0,0,0,10,22,-4,-1
1615919184220627,3,-3,-3,-2,-7,-29,-16,0
1615919184228609,3,1,5,5,5,-2,5,1
1615919184228609,-3,-1,-6,-6,31,19,-4,-3
1615919184229841,0,0,-1,1,-31,4,-3,-1
1615919184229841,-5,-2,0,-1,10,-2,0,-1
1615919184250870,-1,-5,-6,-3,-24,-8,-11,-1
1615919184250870,2,4,5,9,5,9,24,4
1615919184251874,-1,-3,-2,-15,-4,-13,-9,-2
1615919184251874,1,2,-2,1,6,19,9,0
1615919184265861,-3,1,0,-1,-8,-11,8,-4
1615919184265861,0,-5,-4,0,6,-6,-15,-1
1615919184273813,-1,-4,0,1,-3,0,-5,-2
1615919184273813,1,0,1,3,-8,4,6,-1
1615919184288829,-2,0,-1,-6,26,16,-3,-4
1615919184288829,-2,2,7,1,-15,-23,-7,-1
1615919184289826,-1,2,2,2,2,1,1,-4
1615919184289826,-1,-4,-4,-4,-1,-5,-9,0
1615919184311586,1,-2,-1,-1,0,9,14,2
1615919184311586,-2,-1,-9,-5,5,-2,-33,-3
1615919184311586,0,0,-2,-3,-26,-6,1,0
1615919184311586,-1,-1,-1,1,2,-1,-2,-1
1615919184334528,0,3,4,2,19,1,-9,-3
1615919184334528,-1,-2,-1,-3,6,12,7,0
1615919184335527,0,1,-1,0,7,-16,3,2
1615919184335527,0,0,2,0,33,-2,-7,0
1615919184348887,-2,-3,-3,-4,-18,0,11,3
1615919184348887,-2,1,-3,3,-3,2,12,0
1615919184349913,-1,0,2,-6,15,-6,-24,-1
1615919184349913,-2,-4,-3,-4,-10,-6,13,0
1615919184370902,0,6,8,2,-3,-3,0,1
1615919184370902,0,-1,-1,-6,-14,4,-2,-1
1615919184371876,-1,2,2,6,-3,10,3,-1
1615919184371876,-2,-1,1,-3,-13,0,25,-1
1615919184394020,-4,-4,-8,-3,10,-10,-52,-5
1615919184394020,-2,0,1,-3,-3,2,-3,-1
1615919184394919,1,-1,-5,3,-6,6,9,1
1615919184394919,-2,-1,-1,-2,4,4,-7,-1
1615919184408752,-1,-4,-6,-1,-5,0,18,1
1615919184408752,-1,-2,-2,0,3,2,-6,-3
1615919184409749,-1,-1,1,0,-1,-4,3,1
1615919184409749,0,2,3,2,-9,6,-10,-4
1615919184430693,-2,-6,-1,1,20,2,7,0
1615919184430693,-1,-2,-8,-5,-10,3,-6,0
1615919184431690,-2,0,-2,1,7,-4,5,-1
1615919184431690,2,0,-1,0,-1,17,0,3
1615919184454827,-1,1,1,0,9,-6,3,-3
1615919184454827,0,-5,-3,-3,-15,-2,-2,-2
1615919184455612,-3,-2,-2,-1,1,11,7,-1
1615919184455612,-1,1,-1,8,-1,-12,-8,0
1615919184468846,0,-1,-3,-13,-13,-1,14,-2
1615919184468846,-2,0,1,5,8,2,-9,-2
1615919184469843,2,1,-7,0,-5,-10,-8,-2
1615919184469843,0,-2,-1,-3,-5,6,5,-2
1615919184491078,-1,-1,-2,6,-2,-3,12,-1
1615919184491078,2,2,12,4,-3,-17,-3,-2
1615919184499075,0,0,1,-7,-24,2,-2,2
1615919184499075,-3,-2,0,2,14,4,-10,-1
1615919184514142,0,-3,-7,-7,1,-11,-9,-2
1615919184514142,0,-2,-1,-2,-48,7,10,-1
1615919184515694,2,6,8,3,24,7,-6,-2
1615919184515694,-1,-1,-3,-1,-9,-6,2,-1
1615919184528452,-3,-2,-4,-1,-15,-10,0,-6
1615919184528452,2,7,9,-1,9,-5,-7,4
1615919184529972,-3,-5,-5,4,6,3,9,-1
1615919184529972,-2,-2,2,-15,-29,-19,-4,-2
1615919184551075,0,-2,-8,7,14,12,-7,-1
1615919184551075,-2,0,-6,0,13,3,10,-1
1615919184551921,-1,-1,1,-5,-24,3,-5,-2
1615919184551921,1,3,-2,0,17,-4,-1,-1
1615919184574034,0,1,6,2,-7,-7,-2,1
1615919184574034,-3,-3,1,-2,2,-2,1,-2
1615919184574034,-2,-4,-9,-3,-16,-7,-1,0
1615919184574034,-2,-2,-2,0,-2,0,0,0
1615919184589098,-1,1,0,-2,11,6,3,-1
1615919184589098,2,1,11,5,27,10,-7,-1
1615919184589098,1,-1,-1,-2,7,-3,2,-2
1615919184589098,-3,-5,-5,1,-10,-4,-6,-5
1615919184611614,1,5,5,-6,7,8,1,2
1615919184611614,-4,-2,-4,-1,-7,-1,11,-2
1615919184612051,1,-1,-3,1,9,-4,-29,3
1615919184612051,1,0,3,-5,0,0,7,3
1615919184633997,-3,-4,-7,-7,-16,-7,-6,-2
1615919184633997,-2,-5,-10,-4,-18,-8,4,-2
1615919184633997,0,4,11,3,5,-12,5,-2
1615919184633997,-1,-1,-3,5,15,8,0,-4
1615919184648869,-1,-2,1,1,-6,-6,-3,-1
1615919184648869,0,-2,-7,-4,-25,-1,0,-1
1615919184649903,1,0,-4,8,56,19,-3,0
1615919184649903,0,1,2,-10,-38,-4,-5,-1
1615919184670884,1,-2,1,0,1,-2,-3,0
1615919184670884,-4,-4,-4,0,1,-5,-2,-4
1615919184671858,-2,3,-1,4,1,13,6,0
1615919184671858,0,1,0,-4,-24,-7,2,0
1615919184693842,2,2,3,3,1,0,20,2
1615919184693842,-2,-4,-4,-2,-2,-2,-42,-3
1615919184694820,0,-3,-5,-1,-11,-2,21,-2
1615919184694820,0,1,5,0,25,8,-11,-1
1615919184708864,-1,-4,-3,-4,-12,-15,2,0
1615919184708864,0,1,0,-5,-1,-4,2,2
1615919184709871,-1,-5,-2,-3,-3,5,7,0
1615919184709871,-2,-1,8,1,-7,-14,-10,-3
1615919184730837,2,0,-3,5,52,26,-3,0
1615919184730837,-1,2,6,0,-17,-26,3,-1
1615919184731807,-3,-4,-6,-5,-4,-10,-9,-4
1615919184731807,-2,0,-6,2,-24,2,12,0
1615919184753978,-1,1,2,-3,-11,9,-7,-2
1615919184753978,1,3,4,2,22,2,8,3
1615919184754886,-1,-1,2,-9,-30,-16,-7,-3
1615919184754886,1,1,-13,6,19,4,2,-2
1615919184768916,-4,-4,-2,-1,-23,-12,3,-2
1615919184768916,0,-3,-5,-3,13,11,-8,-1
1615919184768916,-2,-2,1,1,-8,-3,3,0
1615919184768916,-1,-2,0,-8,4,-4,2,0
1615919184791692,-2,1,-2,-2,-2,-2,-8,-3
1615919184791692,0,0,1,3,5,4,8,-1
1615919184791692,0,-3,0,-3,2,-1,4,1
1615919184791692,1,-2,-4,2,-31,4,-1,1
1615919184813931,-1,0,2,0,-15,-33,-2,-2
1615919184813931,-5,-5,-5,-3,0,7,3,-2
1615919184814863,1,0,3,1,11,4,5,-3
1615919184814863,-2,0,1,2,21,8,-2,-1
1615919184828824,-3,-5,-7,-13,-15,6,-4,-4
1615919184828824,0,-1,-8,4,-1,-12,2,-2
1615919184829823,-1,-1,-1,-4,5,3,-15,0
1615919184829823,-2,-3,0,5,-22,-9,6,-1
1615919184850883,-2,-3,-7,-5,35,12,-7,0
1615919184850883,0,3,1,-4,5,-7,8,1
1615919184851883,1,0,3,5,3,-1,-6,-1
1615919184851883,-3,-5,-3,-12,5,-1,-5,-2
1615919184873837,-1,1,6,8,-8,2,9,2
1615919184873837,2,6,-1,-4,0,4,-7,-2
1615919184874767,-2,-1,-5,-1,-22,0,8,0
1615919184874767,1,1,6,6,63,19,12,0
1615919184888740,2,-4,-1,-2,-9,-1,-11,0
1615919184888740,-4,-5,-5,0,10,11,9,0
1615919184889743,-1,1,0,-3,-13,-14,-11,-2
1615919184889743,-1,1,-5,5,-14,14,-2,1
1615919184911616,2,1,6,-7,8,4,12,0
1615919184911616,-3,-3,0,3,2,-11,-14,-3
1615919184912366,-3,-4,-8,-5,5,-2,10,-1
1615919184912366,-1,-4,-1,-1,-12,-5,-20,-3
1615919184933731,0,5,-2,4,10,-2,-5,-2
1615919184933731,0,-2,-1,-2,-15,2,7,-1
1615919184934647,-2,0,-1,0,3,-2,13,1
1615919184934647,-1,-5,-3,-8,-3,-15,-1,-3
1615919184948453,-1,1,9,13,-20,11,-4,0
1615919184948453,-2,-5,-13,-22,18,-15,-5,-3
1615919184956650,0,2,0,1,-15,-12,-3,-2
1615919184956650,1,3,2,5,18,-1,0,-2
1615919184970700,0,-2,-4,-1,-17,6,0,-1
1615919184970700,-1,-2,5,8,-1,3,-3,0
1615919184971697,-3,-3,-6,-10,-2,3,-18,-6
1615919184971697,-1,2,6,1,9,-10,5,0
1615919184993845,-2,-6,-11,-4,15,4,13,-1
1615919184993845,1,6,7,4,14,-3,-6,2
1615919184994745,1,-1,3,-3,-13,-7,-2,-1
1615919184994745,0,0,-1,0,14,11,2,2
1615919185008080,-2,-4,-1,0,-7,-17,-8,-3
1615919185008080,2,-3,-1,0,-1,3,9,1
1615919185016720,-2,1,0,0,14,22,17,-2
1615919185016720,0,-5,-4,-12,-36,-34,-19,0
1615919185031693,-1,-1,-2,-1,6,9,9,1
1615919185031693,-1,1,-3,-4,-35,-5,-6,0
1615919185031693,-2,-3,8,4,28,5,-4,-2
1615919185031693,-4,-3,1,4,-31,1,3,-4
1615919185053787,0,1,0,-1,-1,-8,-3,0
1615919185053787,-1,2,0,-1,1,5,3,0
1615919185054685,1,1,-4,1,-4,2,-4,3
1615919185054685,-3,-1,-4,-2,45,1,6,-4
1615919185067694,3,3,5,8,-3,-6,-14,1
1615919185067694,0,-5,-4,-9,1,-2,13,-1
1615919185076657,-2,-2,2,6,-7,-3,-4,-1
1615919185076657,2,3,1,-6,1,1,-1,2
1615919185091698,-4,-2,-10,-4,1,-4,2,-2
1615919185091698,-1,-1,5,7,-9,-26,-9,-2
1615919185091698,0,-1,-2,-3,0,-11,-13,-2
1615919185091698,-2,-1,-3,0,-6,8,2,1
1615919185121745,0,-3,4,5,16,8,0,-2
1615919185121745,0,-2,-3,-1,0,1,-3,-1
1615919185122742,0,0,-2,-3,-7,-5,-6,0
1615919185122742,0,1,3,3,-2,-2,0,1
1615919185127728,-1,-6,-5,-6,-25,-11,-4,-1
1615919185127728,-2,-2,1,0,8,14,6,-2
1615919185135707,-2,-3,-1,-1,-12,-9,6,-1
1615919185135707,2,1,-9,-3,1,-3,-12,-2
1615919185150873,-3,1,3,-4,-21,-3,5,0
1615919185150873,0,-1,0,-2,4,-1,-1,0
1615919185151751,-4,-3,0,1,-1,10,6,-1
1615919185151751,-2,-2,-7,-2,-3,19,12,1
1615919185173719,0,-2,-2,-4,-2,-10,-9,-2
1615919185173719,-1,2,8,3,1,15,4,1
1615919185174716,0,-5,-7,-5,-3,-3,-9,0
1615919185174716,1,3,4,2,2,-2,6,-1
1615919185188455,2,2,-3,-1,-1,-4,-5,-1
1615919185188455,-1,-3,-6,1,11,5,-6,-2
1615919185195760,0,1,1,-3,-5,1,-8,-4
1615919185195760,-2,-2,1,1,-15,-11,-5,0
1615919185210968,-2,-1,-4,2,-22,2,7,-1
1615919185210968,-1,-2,-2,-6,14,4,16,-1
1615919185211969,0,2,2,-1,6,-2,-40,0
1615919185211969,-2,-1,-3,1,-18,-11,2,-2
1615919185233909,-2,3,-2,-9,-7,18,-9,-1
1615919185233909,-3,-5,-5,5,0,-17,-5,0
1615919185233909,0,4,2,0,-2,-1,8,2
1615919185233909,-1,0,3,8,3,-4,-7,-4
1615919185247871,-3,-3,0,-1,12,14,7,-1
1615919185247871,-2,2,-4,-5,-4,-11,-2,-1
1615919185255850,-1,-1,-2,0,-6,6,4,-2
1615919185255850,0,-7,0,-4,-4,-19,-2,-1
1615919185270810,0,1,-1,-1,-2,-9,0,-1
1615919185270810,-2,0,1,1,-8,19,-1,-1
1615919185271808,-3,-5,-3,-2,1,-19,7,-2
1615919185271808,0,0,-1,-8,10,6,11,-1
1615919185293172,0,-1,3,2,-8,-5,-13,-1
1615919185293172,-1,-2,0,0,-4,-1,-4,0
1615919185294144,2,0,0,5,28,11,4,2
1615919185294144,-3,-3,-1,-13,-5,3,2,-1
1615919185317108,-2,-2,-4,4,4,-3,6,-1
1615919185317108,-1,-1,3,2,10,6,-7,-2
1615919185318081,-1,-5,-6,-5,-11,-7,16,0
1615919185318081,-1,2,-1,5,14,4,-16,0
1615919185331069,0,0,5,0,-14,0,8,-2
1615919185331069,1,1,-1,-3,35,5,-4,-1
1615919185332042,-2,-2,0,1,-2,7,3,-1
1615919185332042,2,-2,-5,-3,-21,-2,-2,1
1615919185354007,-2,-1,0,-3,-5,-4,-2,-2
1615919185354007,-1,1,2,1,-25,-17,-6,0
1615919185354007,-2,-3,-5,-4,12,5,-4,-2
1615919185354007,-2,0,3,10,1,-3,8,-1
1615919185376926,-2,2,-2,-17,5,-12,1,-1
1615919185376926,-4,-7,-4,0,-19,0,-41,-2
1615919185377920,1,1,-3,-1,-15,-5,0,1
1615919185377920,3,2,1,0,6,1,4,4
1615919185390885,0,-2,4,7,24,16,5,-2
1615919185390885,2,1,-4,-4,6,-3,4,-1
1615919185391883,0,0,3,-2,-16,1,-1,0
1615919185391883,-2,-1,0,-2,-23,-2,-2,-1
1615919185413307,0,-4,-2,4,8,-11,-2,0
1615919185413307,-1,0,-4,-2,17,4,2,-4
1615919185414301,0,1,2,-4,-3,2,4,3
1615919185414301,-1,1,0,0,36,-1,-15,-3
1615919185436452,-1,-2,-2,0,-27,-2,-2,-1
1615919185436452,1,1,0,1,12,14,-8,-1
1615919185437449,0,-1,-1,-1,-20,-15,18,1
1615919185437449,-3,-3,-1,-4,-16,6,11,-2
1615919185451412,-1,0,3,0,5,-12,-27,0
1615919185451412,1,-1,-1,-1,-21,5,7,0
1615919185452409,-3,0,1,6,3,5,-4,-3
1615919185452409,-1,-2,-2,-10,12,-12,-7,-3
1615919185473773,-3,-2,-6,1,5,7,5,1
1615919185473773,-2,2,3,-1,-17,-2,9,-1
1615919185474770,0,1,-2,0,6,3,-14,-2
1615919185474770,1,1,-1,-2,-21,-6,10,1
1615919185497282,-3,-6,-2,-1,-3,-1,-2,0
1615919185497282,-1,0,-3,-2,-12,-11,1,0
1615919185497282,1,-2,-8,0,-2,14,2,-1
1615919185497282,0,1,7,2,2,-49,-13,-2
1615919185511286,1,0,-3,-3,7,7,4,0
1615919185511286,-2,-2,-5,0,-7,-2,9,0
1615919185512250,-1,-3,-3,-4,0,0,-24,-3
1615919185512250,-1,-2,-5,-1,3,11,4,-1
1615919185533215,0,-1,2,7,5,-8,4,-2
1615919185533215,-3,-2,-1,-10,1,-6,9,1
1615919185534188,-1,-2,0,0,-5,4,0,-2
1615919185534188,-3,-4,-1,2,-3,-2,4,-1
1615919185556638,0,1,-3,3,0,-5,-3,-1
1615919185556638,0,-2,-2,-2,4,10,12,0
1615919185557414,0,1,4,-5,-12,-10,1,-2
1615919185557414,-2,-1,0,0,24,12,-11,-1
1615919185571387,1,0,-4,-1,-5,5,13,1
1615919185571387,-3,-2,1,3,11,11,-5,-1
1615919185572384,-3,-3,1,-4,2,-20,-4,-1
1615919185572384,-1,0,-6,2,-1,14,5,0
1615919185593388,-1,1,5,1,-17,-2,4,-1
1615919185593388,0,-3,-3,-1,9,3,-5,1
1615919185594322,-2,1,-3,-8,9,-10,-11,1
1615919185594322,-2,-1,-2,2,2,10,29,-3
1615919185616399,1,-1,-6,-7,32,4,-13,-1
1615919185616399,0,2,9,3,-18,-11,-4,-2
1615919185617428,1,-4,-4,1,7,0,-4,-1
1615919185617428,1,1,-7,-5,-5,8,9,2
1615919185631386,-2,0,0,-1,0,10,6,0
1615919185631386,1,2,2,3,2,-23,-4,0
1615919185632384,-2,-3,-8,3,4,6,1,0
1615919185632384,-1,-2,5,-3,3,1,-14,-3
1615919185653356,-1,0,1,-1,-16,0,-2,-3
1615919185653356,-1,2,-2,-4,-10,-28,-7,-2
1615919185654353,-2,0,-4,2,-14,-6,2,1
1615919185654353,-2,-3,-6,-9,-20,1,-8,0
1615919185677367,0,-1,-3,1,30,2,-3,0
1615919185677367,-4,-4,-3,-1,-29,-2,-6,-5
1615919185677884,2,2,7,0,14,4,10,-1
1615919185677884,0,0,0,5,3,1,4,-1
1615919185691332,-1,-2,-1,-5,-33,-14,-12,-1
1615919185691332,-3,-4,-4,-2,-10,7,3,1
1615919185692332,-2,-3,-1,2,-7,-1,0,-1
1615919185692332,1,3,7,2,-13,-10,-11,0
1615919185714078,-4,-1,1,5,10,10,14,-3
1615919185714078,1,0,-8,-12,1,-11,1,3
1615919185714078,-2,-3,-4,0,8,-4,-1,-2
1615919185714078,-2,-3,2,1,9,9,-5,0
1615919185736996,-2,-4,-2,-2,-6,-10,0,-1
1615919185736996,1,5,1,7,2,3,-4,-1
1615919185737995,0,-1,-1,-4,-5,8,3,1
1615919185737995,-4,-5,-5,-4,10,-2,-6,-3
1615919185750958,1,-1,-3,3,9,-2,-4,0
1615919185750958,-2,-4,-2,-4,-3,20,22,-1
1615919185751954,3,4,2,-2,21,-1,-37,-1
1615919185751954,-1,0,-1,0,-28,8,-6,1
1615919185773896,-1,-1,-3,-5,-15,-18,10,1
1615919185773896,1,4,10,8,28,8,5,2
1615919185774892,-3,-3,-4,-11,-26,-16,7,0
1615919185774892,-1,0,-2,6,15,13,-7,-2
1615919185796319,2,1,-3,-8,-32,9,4,2
1615919185796319,-1,-3,-3,1,-3,-7,0,-4
1615919185797316,-2,1,2,7,3,4,2,-2
1615919185797316,-1,1,-1,-3,1,-2,11,1
1615919185811279,-3,-1,7,3,9,-3,-17,0
1615919185811279,-3,-2,-4,-5,-36,-8,-1,-2
1615919185812301,0,-4,0,-1,5,12,23,1
1615919185812301,-1,-1,0,-1,-4,-16,-24,-4
1615919185834004,-1,0,-2,-1,-1,6,2,-2
1615919185834004,-2,-3,0,1,-7,-5,-12,0
1615919185834903,0,3,-1,-1,5,-4,11,-2
1615919185834903,1,-1,-1,0,-20,-1,6,-1
1615919185855931,0,1,2,0,52,13,-2,0
1615919185855931,1,0,-3,-1,18,-4,-9,-2
1615919185856929,-2,0,-1,6,-22,-2,-7,0
1615919185856929,3,1,-2,-8,16,9,10,0
1615919185870892,0,-1,2,8,-14,0,-9,-2
1615919185870892,2,0,-3,-8,10,10,3,2
1615919185871887,-3,-5,-2,-1,2,-7,3,-4
1615919185871887,1,0,-1,2,5,-14,-8,1
1615919185893853,-1,0,-6,-7,-9,8,33,1
1615919185893853,-1,-1,2,1,-10,-12,-42,-2
1615919185894829,-1,0,2,-1,-4,-1,-2,-2
1615919185894829,-3,-3,-7,-2,-13,-3,-4,-2
1615919185916891,-2,0,2,-2,-3,-3,3,-1
1615919185916891,0,2,3,3,-19,-3,13,-1
1615919185923902,-2,-1,1,-4,43,16,-8,-2
1615919185923902,1,0,0,3,-22,-22,2,-1
1615919185930886,0,-2,-7,-6,-1,-9,-11,0
1615919185930886,-1,-3,-8,7,25,25,1,-4
1615919185938870,3,4,9,-10,-46,-28,-1,0
1615919185938870,1,1,0,0,-23,0,8,1
1615919185961799,-3,-4,-2,-1,47,-2,-8,-3
1615919185961799,1,1,3,-3,-14,1,1,0
1615919185962773,-3,-4,-5,1,7,5,5,-1
1615919185962773,-1,0,-3,-2,12,3,-2,-1
1615919185975764,1,1,-2,-4,-17,-4,7,1
1615919185975764,-2,-2,-2,0,-9,-11,12,2
1615919185976736,0,-3,-3,1,3,7,-3,-3
1615919185976736,-2,3,0,0,23,21,-2,-1
1615919185990925,0,0,2,-1,-20,-14,-3,-1
1615919185990925,0,-1,1,1,2,0,7,-1
1615919185999238,-1,-1,-3,0,5,3,5,0
1615919185999238,1,-3,-3,-2,1,4,-1,0
1615919186013996,-1,-2,-8,5,16,1,-9,-3
1615919186013996,-3,-2,-1,-8,-12,1,-2,2
1615919186014917,-1,3,0,1,18,-3,-10,0
1615919186014917,0,-1,0,2,-3,-3,2,2
1615919186036691,1,-2,-2,-3,9,-3,-15,-4
1615919186036691,2,-2,-1,-2,-30,-13,5,0
1615919186036691,-2,-5,-2,5,0,5,3,1
1615919186036691,-3,-5,-4,-6,18,1,-3,-5
1615919186050837,0,1,3,4,-4,-8,-3,2
1615919186050837,-3,-1,-1,0,1,23,21,-2
1615919186059244,0,1,-4,-1,8,-9,-33,0
1615919186059244,-1,0,3,6,29,-6,-1,0
1615919186073919,-2,-2,3,-5,-25,-5,-8,0
1615919186073919,-1,-1,-5,2,19,11,7,0
1615919186074929,0,1,-2,-2,1,-11,18,-3
1615919186074929,1,-1,3,-5,-9,6,-6,0
1615919186096689,-2,0,2,-4,-39,-13,-1,0
1615919186096689,0,-4,-2,-1,36,5,-16,-4
1615919186096689,-1,0,0,2,-14,2,17,3
1615919186096689,-2,-3,-2,-3,-5,-8,-9,-1
1615919186110085,-3,-2,-4,0,-10,12,19,2
1615919186110085,-3,0,-1,-1,-12,-28,-28,-4
1615919186118996,1,1,1,-5,-13,5,4,2
1615919186118996,-3,0,0,2,-3,-6,22,-2
1615919186133971,1,-2,-2,-5,13,3,-26,-1
1615919186133971,0,1,2,1,-2,-3,-4,3
1615919186134883,-5,-2,-6,-1,-5,-27,-6,-7
1615919186134883,0,0,4,-3,-14,4,3,2
1615919186156348,0,-1,-5,8,27,-4,1,-1
1615919186156348,0,-1,1,-9,-1,2,1,-1
1615919186157349,0,-2,-2,0,-18,2,-8,-4
1615919186157349,-5,-2,-3,-2,7,8,-2,-3
1615919186170240,-1,2,3,1,14,-9,1,0
1615919186170240,2,0,0,1,-6,-7,-5,1
1615919186178394,-3,-4,-2,-4,20,19,-1,-1
1615919186178394,-2,-2,-5,3,18,5,7,-2
1615919186193553,-1,-2,-1,-5,-6,3,0,-3
1615919186193553,-5,-3,-5,0,15,1,3,-2
1615919186194442,-1,0,2,0,-14,2,-9,0
1615919186194442,0,-2,-3,-1,-6,5,20,1
1615919186216649,0,-1,2,4,-3,7,-28,-3
1615919186216649,0,-3,-3,-9,-18,-14,3,0
1615919186216981,-1,-5,-4,1,21,5,5,-2
1615919186216981,-1,4,-2,1,7,0,-16,-2
1615919186239924,-1,1,1,-1,-9,3,15,2
1615919186239924,-2,-2,-2,3,0,-3,0,-1
1615919186239924,1,2,8,1,-3,4,-12,-1
1615919186239924,1,-1,-2,1,-5,-11,0,1
1615919186253877,-2,-1,0,-6,1,3,1,-3
1615919186253877,0,0,-3,-2,-12,-10,-3,1
1615919186254777,0,-2,-2,0,26,4,6,0
1615919186254777,-1,-2,0,0,-32,3,-6,-4
1615919186276684,2,0,0,-2,-13,-8,1,-1
1615919186276684,-3,-2,-1,-1,-8,-25,-10,-2
1615919186276684,-1,-2,-3,-1,-8,1,4,1
1615919186276684,-1,-3,1,-3,5,-4,-12,0
1615919186299884,-1,-1,-3,-4,10,-3,10,1
1615919186299884,-2,0,3,3,15,13,2,0
1615919186299884,-3,-2,-3,-4,-25,-10,-2,-1
1615919186299884,2,-2,-6,4,15,-1,-1,0
1615919186313848,-2,-3,-3,-8,-18,3,3,-3
1615919186313848,1,0,2,-2,7,-6,-4,-1
1615919186314846,-1,0,-3,-3,-26,-11,-1,-1
1615919186314846,0,-3,1,-1,3,5,1,0
1615919186336831,0,-2,-4,-1,-17,7,-3,-3
1615919186336831,1,1,1,4,23,23,9,2
1615919186337824,-2,-4,1,-2,-9,7,9,-3
1615919186337824,-3,0,1,-2,24,-12,-43,-5
1615919186359013,1,-1,-3,-5,-24,-9,-5,2
1615919186359013,1,1,-3,3,-11,2,-3,-2
1615919186359985,3,1,5,1,13,16,10,1
1615919186359985,0,-2,-1,1,-10,2,7,0
1615919186373823,-1,1,2,4,12,-7,-7,-2
1615919186373823,-2,-4,-2,-1,0,9,12,-1
1615919186374820,2,-1,-1,-4,-19,-10,-17,-1
1615919186374820,0,5,5,2,10,-2,2,0
1615919186396741,-1,-1,-3,-1,19,1,3,-1
1615919186396741,-1,-2,1,-2,-4,1,4,-2
1615919186396741,-2,-1,-3,0,-1,16,16,0
1615919186396741,1,-1,1,3,1,-13,-15,-1
1615919186419449,-4,-5,-1,2,43,16,7,-1
1615919186419449,-1,2,-1,-10,-13,0,-6,-1
1615919186420446,-2,1,0,3,24,13,4,0
1615919186420446,0,-2,-5,-7,-42,-13,17,0
1615919186433547,-1,0,-1,3,-12,-13,-12,-1
1615919186433547,0,4,6,2,18,6,1,1
1615919186434438,-4,-3,-2,-3,2,-4,-19,-4
1615919186434438,-2,-1,-6,-4,-9,-1,11,-1
1615919186456589,0,-2,-1,5,-15,-3,2,0
1615919186456589,-2,-3,2,-1,18,5,1,-1
1615919186456589,-1,-2,-5,-5,15,-12,4,-2
1615919186456589,-3,-3,0,-2,-27,-4,-6,-2
1615919186479862,1,-2,-5,0,50,18,13,1
1615919186479862,-1,-6,-5,2,1,-1,3,-1
1615919186480686,-1,2,-1,0,-4,7,2,-1
1615919186480686,-1,1,0,-5,-6,-12,5,0
1615919186494930,-2,-2,4,3,6,8,-5,-3
1615919186494930,0,3,-4,-3,-10,-13,4,1
1615919186495827,1,0,-1,1,-23,-8,-8,2
1615919186495827,0,2,4,-2,-7,2,-1,0
1615919186515780,-1,-2,-1,-2,-13,8,14,0
1615919186515780,-1,-3,-3,-2,-30,-21,-11,-1
1615919186516777,-2,-2,1,-4,-10,-6,1,-2
1615919186516777,-2,-2,-6,2,10,21,4,-1
1615919186539216,1,4,2,-1,-20,-31,-13,1
1615919186539216,-2,1,0,2,-6,23,-4,-4
1615919186540644,0,3,0,-1,43,-12,-7,0
1615919186540644,0,-4,0,-2,-16,-8,6,-1
1615919186553971,-2,0,0,-2,15,12,20,1
1615919186553971,-3,0,-1,4,0,1,-42,-3
1615919186554971,0,-4,-4,-4,4,-5,-16,-2
1615919186554971,-2,-1,0,0,6,-1,-1,-1
1615919186575972,0,0,-4,-5,-29,-16,4,-4
1615919186575972,-2,-3,3,1,19,-6,-9,-3
1615919186576863,2,-2,-1,-1,-15,-1,6,0
1615919186576863,-1,1,-3,-3,18,-14,-8,-2
1615919186599916,-4,-9,-6,-1,-42,-4,-10,-2
1615919186599916,2,3,3,3,7,0,12,0
1615919186599916,0,2,-5,-2,-6,1,-3,0
1615919186599916,1,-1,0,-3,8,16,-4,-1
1615919186614045,-1,-1,0,0,-7,-26,-4,0
1615919186614045,-2,-3,-5,-6,-39,7,17,0
1615919186615517,-2,-1,0,1,-21,-20,-4,-1
1615919186615517,-1,0,1,3,-1,4,-2,1
1615919186636635,-2,1,1,-1,11,10,-6,-2
1615919186636635,1,-2,-1,-2,16,0,-2,-2
1615919186636635,0,-2,1,6,-1,2,18,1
1615919186636635,0,0,-6,-12,-23,-9,-19,-2
1615919186659834,1,2,3,2,0,8,9,0
1615919186659834,-1,-4,-8,-3,14,-12,-4,0
1615919186659834,2,0,6,3,-19,1,22,-1
1615919186659834,-1,1,-1,4,28,-3,-2,-2
1615919186673902,0,-1,0,-3,-2,16,-1,0
1615919186673902,-1,-1,-1,-2,20,-31,-1,-1
1615919186674984,-3,-2,-1,-1,2,2,-9,-2
1615919186674984,-2,-5,-3,-4,-12,1,2,-1
1615919186696752,1,2,-2,-4,-5,-13,-4,0
1615919186696752,-3,-4,0,1,6,22,1,-1
1615919186696752,0,3,1,7,-15,-4,-17,0
1615919186696752,-1,-2,-2,-13,5,-6,1,0
1615919186718864,-3,-4,-5,0,7,8,5,-3
1615919186718864,-2,-3,1,1,-11,-10,2,-1
1615919186719886,-1,-4,-4,-4,-5,2,10,1
1615919186719886,-2,1,5,8,-2,-2,-3,0
1615919186742135,0,1,-2,1,15,3,-2,0
1615919186742135,0,0,-1,-3,-1,5,-4,-1
1615919186743031,-5,-2,-3,-1,8,-1,5,-2
1615919186743031,-1,-2,2,3,-12,-5,7,-1
1615919186756052,-1,-1,-3,-2,2,-1,-13,-3
1615919186756052,1,2,0,2,-13,8,9,1
1615919186757048,-2,0,-4,-5,20,-31,-3,-1
1615919186757048,-3,-5,-4,-1,28,14,3,-2
1615919186780329,-1,1,3,-1,-7,-20,-20,-2
1615919186780329,1,-3,-2,5,-18,13,3,-2
1615919186780329,1,5,-1,-11,13,0,-2,2
1615919186780329,-4,-2,-2,-3,-1,0,0,-1
1615919186793991,-1,-1,-1,-2,-7,0,15,1
1615919186793991,0,-1,0,-3,-14,-16,-24,-3
1615919186795003,0,-1,2,-1,11,11,-9,-1
1615919186795003,-2,1,0,3,22,3,5,0
1615919186815936,1,-2,-3,-1,-2,1,1,1
1615919186815936,-2,-3,-3,-3,-35,-3,10,0
1615919186816923,-1,-1,-4,-4,10,18,-13,-2
1615919186816923,2,1,7,3,-24,9,-4,-2
1615919186839471,-1,-3,2,1,46,-1,-1,-4
1615919186839471,-1,3,2,-1,13,3,5,0
1615919186840504,-3,-2,-3,7,3,5,-1,-1
1615919186840504,-1,-3,-7,-10,-12,-6,-1,-1
1615919186853458,-3,0,3,1,-18,-2,-3,-1
1615919186853458,-2,-2,0,-1,20,10,4,-2
1615919186861487,-1,3,-1,4,-10,-9,-6,1
1615919186861487,3,-2,-2,-2,-2,-1,-1,3
1615919186876015,0,0,-2,-2,-10,-1,26,1
1615919186876015,-3,-5,-4,-6,4,-7,-44,-5
1615919186877015,-2,-4,4,4,0,8,17,2
1615919186877015,-1,-1,-1,-4,-25,-22,-13,-1
1615919186899864,-1,-4,-4,-6,-41,-9,-5,-3
1615919186899864,-1,-2,-1,2,7,1,13,1
1615919186899864,0,-1,0,-1,-1,-2,-8,-4
1615919186899864,-2,-1,1,7,0,8,1,-3
1615919186913532,1,-3,-5,-6,12,-9,3,3
1615919186913532,2,2,1,-5,-17,-7,1,0
1615919186921436,0,-3,-6,-2,4,-4,-1,1
1615919186921436,0,-1,2,2,-15,0,3,-1
1615919186936477,0,0,-1,0,-10,12,-5,1
1615919186936477,-3,2,-6,-4,4,-9,25,0
1615919186937465,-1,-5,1,0,-7,-6,-38,-3
1615919186937465,-1,3,-1,4,-33,7,-2,2
1615919186959910,0,3,3,-4,-17,-6,-2,0
1615919186959910,-4,-3,-1,1,0,0,5,-1
1615919186960332,1,-3,0,-3,-4,11,15,2
1615919186960332,0,2,-5,-4,-19,-26,2,-2
1615919186972817,3,-2,-2,5,-3,9,-11,0
1615919186972817,0,1,3,-4,19,2,3,2
1615919186981680,-5,-6,-2,-3,-24,5,-2,-5
1615919186981680,1,-4,-2,0,14,4,3,2
1615919186996642,-6,-6,-1,-1,49,8,8,-5
1615919186996642,3,6,-1,2,-3,-16,-21,-1
1615919186997454,0,-2,0,-1,6,10,17,-1
1615919186997454,-1,-4,0,-2,2,-16,-5,-1
1615919187019814,-1,2,-5,1,-5,-3,-7,0
1615919187019814,1,1,5,0,3,9,4,1
1615919187019814,-1,0,-3,-4,1,-12,0,0
1615919187019814,-4,1,0,0,6,6,6,-2
1615919187032872,0,-3,-3,2,18,0,-4,0
1615919187032872,2,-1,-4,-2,7,7,9,3
1615919187041771,1,2,2,-1,-18,0,4,-1
1615919187041771,-1,-2,1,0,28,12,6,1
1615919187056771,-2,0,1,-3,-8,-9,-12,-3
1615919187056771,-2,-5,-3,3,-35,-8,10,-1
1615919187056771,0,2,2,-10,3,9,1,-3
1615919187056771,0,2,-11,0,0,1,-5,1
1615919187079947,1,4,12,0,4,-7,-20,-2
1615919187079947,-1,-4,-5,0,37,6,-3,-2
1615919187079947,-2,-1,0,0,-32,-14,1,1
1615919187079947,-3,-4,0,-6,-16,3,-7,-4
1615919187092701,4,1,-2,-1,-14,-5,2,3
1615919187092701,-4,-3,-8,-3,-5,0,7,0
1615919187101586,2,4,9,-1,12,4,-7,-1
1615919187101586,0,-4,-6,-1,10,-9,5,1
1615919187116716,-3,-3,-4,2,-16,19,18,-1
1615919187116716,0,0,5,0,0,-25,-48,-5
1615919187116716,-3,-2,-5,1,19,7,8,-1
1615919187116716,-1,-2,-1,0,-37,-12,-9,-1
1615919187139677,-3,0,0,-2,18,11,5,2
1615919187139677,-1,-2,1,4,-11,5,0,1
1615919187140652,-1,2,-4,-9,-7,-17,2,-1
1615919187140652,0,-3,0,2,8,-9,-4,0
1615919187152621,-1,-4,-4,-2,-2,-7,-6,-3
1615919187152621,-1,1,2,-4,-23,-4,6,-1
1615919187162166,0,-1,-5,5,20,9,0,-1
1615919187162166,0,-2,-1,-1,12,4,7,-1
1615919187176721,-3,1,3,2,-12,-6,-4,-3
1615919187176721,-1,-5,-7,-8,-16,-1,8,-1
1615919187176721,1,-2,4,2,22,-3,-5,-2
1615919187176721,1,2,4,-3,-4,6,-3,1
1615919187199278,-2,-4,-6,-4,-13,-24,-4,-1
1615919187199278,0,2,8,3,14,6,-5,-1
1615919187199278,-2,-6,-9,2,-8,6,5,-1
1615919187199278,0,1,2,0,30,8,2,-1
1615919187221450,-1,4,2,-2,3,-7,-5,0
1615919187221450,1,1,3,-2,-10,9,9,-1
1615919187222452,0,-4,-6,-3,-9,-5,1,0
1615919187222452,1,-2,-1,1,7,6,-8,-1
1615919187236665,-2,-4,-2,1,-3,0,8,-2
1615919187236665,1,2,-4,-3,-34,-1,-3,0
1615919187236993,-2,1,2,3,32,-1,-5,-1
1615919187236993,-3,0,0,-2,-21,4,5,-5
1615919187258355,1,-1,-4,-3,12,-9,-17,0
1615919187258355,-1,5,2,2,-27,-3,4,-1
1615919187259354,0,-1,-2,-3,-19,-11,-9,-2
1615919187259354,-4,-1,1,-1,16,-10,3,-2
1615919187282324,0,-4,-3,-7,5,6,-3,-2
1615919187282324,-2,-3,-6,2,13,14,27,1
1615919187282324,-3,0,-4,-1,-15,2,-44,-2
1615919187282324,1,1,3,-2,4,13,-9,1
1615919187296726,1,-2,1,0,-18,-9,13,1
1615919187296726,-1,-4,-5,-2,16,-4,4,-1
1615919187296726,-2,-3,-3,1,12,8,10,-1
1615919187296726,0,1,-4,-4,-9,0,2,-1
1615919187318854,-2,3,4,-1,-11,-2,-11,-1
1615919187318854,1,-5,-5,-1,20,7,1,2
1615919187319876,0,4,7,9,-18,-10,8,-1
1615919187319876,1,2,-1,-9,7,-5,-7,0
1615919187340908,-3,-1,-4,-2,-11,0,6,-3
1615919187340908,-3,-1,-3,-2,10,-4,-11,-4
1615919187349298,0,0,0,0,-28,4,8,1
1615919187349298,0,0,0,1,22,12,6,0
1615919187356380,-1,0,0,-1,-8,-7,-6,-2
1615919187356380,-3,-1,1,-2,-27,4,-9,-3
1615919187357279,-3,-4,-4,-5,12,3,-1,-3
1615919187357279,1,0,-5,5,-9,1,0,0
1615919187379244,0,2,1,-4,3,3,4,1
1615919187379244,-1,0,-3,1,-6,-4,-6,1
1615919187380242,0,-4,0,0,33,5,17,-3
1615919187380242,-1,1,0,-5,7,-12,-33,1
1615919187402283,3,-2,1,4,-14,16,6,1
1615919187402283,0,3,2,-5,25,-9,-8,-1
1615919187403207,0,1,1,-3,-27,0,-2,0
1615919187403207,-2,-6,-6,2,4,1,14,-1
1615919187416710,-2,-4,-2,-1,-1,-4,-9,-1
1615919187416710,1,7,5,4,-8,17,-4,-1
1615919187417216,0,2,-4,-2,-3,-3,8,2
1615919187417216,-2,-2,-2,0,7,4,-6,-3
1615919187447430,-4,-2,-1,1,2,-12,0,-1
1615919187447430,-3,-6,-2,-3,4,-1,1,-3
1615919187447430,-3,-4,-2,-2,-5,-7,-11,-3
1615919187447430,-2,2,3,0,-46,-4,3,-1
1615919187462384,0,-2,-2,1,2,7,5,0
1615919187462384,1,-4,-6,-2,39,-11,-3,0
1615919187462795,0,-1,-2,-2,-19,-12,-3,0
1615919187462795,0,-1,3,4,2,4,8,3
1615919187476784,2,2,-1,1,-24,-18,-6,-4
1615919187476784,-3,-1,4,-3,-12,-5,8,0
1615919187476784,1,1,-5,-1,-5,-5,-3,0
1615919187476784,-5,-6,-6,-2,14,8,4,-4
1615919187499271,0,3,5,0,4,-3,-4,-2
1615919187499271,0,1,-2,-1,-34,-3,-3,-2
1615919187499271,1,-2,1,3,-3,0,-5,0
1615919187499271,-3,-3,-4,-12,5,-6,-8,-3
1615919187522289,-5,-8,-10,5,12,7,5,-1
1615919187522289,-1,-1,1,-4,3,-8,-6,-2
1615919187522289,-1,3,6,0,-6,1,-11,-3
1615919187522289,1,-3,-7,3,-47,1,16,0
1615919187535886,0,4,0,-6,38,7,0,1
1615919187535886,-3,0,7,2,0,-1,-6,-2
1615919187536883,-2,-6,-9,-3,-4,-4,7,-2
1615919187536883,1,7,3,4,12,7,7,-1
1615919187559108,-1,2,3,-3,-1,-6,-4,1
1615919187559108,-2,-4,-2,1,5,-1,2,0
1615919187560048,0,2,3,1,-14,-7,-8,-1
1615919187560048,-3,-8,-1,0,23,-11,2,1
1615919187582434,3,5,1,0,-5,2,4,0
1615919187582434,1,-1,-4,-2,24,2,-4,0
1615919187582794,-1,0,-1,3,24,-8,7,0
1615919187582794,3,0,3,-7,-2,-4,-5,-2
1615919187596727,4,2,-3,0,-10,-1,-5,0
1615919187596727,-1,-3,1,2,-12,-1,-4,-1
1615919187596727,-1,1,-6,-4,13,4,11,1
1615919187596727,-3,-2,-2,2,29,-5,-28,-5
1615919187619669,-2,-4,0,-2,8,1,3,0
1615919187619669,-2,0,-5,-2,3,7,4,0
1615919187619669,0,-2,-3,-1,-26,-7,0,0
1615919187619669,-2,0,-1,-1,-4,5,24,2
1615919187642910,-1,-3,0,1,-3,6,-21,-2
1615919187642910,-2,-1,-1,2,4,-8,0,0
1615919187643930,-1,-1,-1,-5,-2,0,-8,-2
1615919187643930,0,-6,-3,-3,-27,-2,9,0
1615919187656596,1,5,5,4,30,24,11,1
1615919187656596,1,1,-5,-2,-4,-6,2,-1
1615919187656596,-2,-1,2,-5,-2,17,-4,-1
1615919187656596,0,-1,3,-1,-12,-33,-10,-1
1615919187679247,-2,-8,-7,0,-3,-5,2,1
1615919187679247,0,-2,-1,2,5,9,0,-1
1615919187679247,-1,1,1,-5,0,1,3,-2
1615919187679247,2,0,-7,-1,7,1,-4,0
1615919187701912,-5,-3,-2,-4,-41,-3,-5,-4
1615919187701912,-3,-1,2,1,4,-3,24,-1
1615919187702909,-2,-3,-1,4,19,-11,-56,-4
1615919187702909,-1,-1,-1,-1,-12,-1,15,3
1615919187716722,-1,0,-5,-3,-4,1,-1,-2
1615919187716722,-1,-3,-2,-2,0,3,0,-1
1615919187716940,-2,-2,0,-1,-6,6,10,0
1615919187716940,1,3,-1,0,-8,5,-5,-1
1615919187738915,-1,1,-2,-2,22,3,-3,0
1615919187738915,1,-2,0,-1,-10,-1,-7,-1
1615919187739974,-1,-2,-4,0,-3,4,19,-1
1615919187739974,-1,-2,-4,-4,-1,-16,-21,-2
1615919187762461,-1,-2,0,1,-4,1,10,0
1615919187762461,-1,0,1,2,-1,2,-8,1
1615919187762792,0,-1,-3,-10,-1,-7,2,1
1615919187762792,-3,-3,-1,0,-3,-2,5,-3
1615919187776801,0,-1,0,-3,-3,1,-17,0
1615919187776801,-2,1,-2,0,-25,-2,-3,0
1615919187776801,-3,-6,-3,0,0,-5,3,-3
1615919187776801,0,5,0,1,-13,1,2,0
1615919187799264,-2,-6,-3,-3,4,-5,3,-1
1615919187799264,0,-2,-2,-2,-8,-2,-2,-1
1615919187799264,3,0,0,5,11,0,8,0
1615919187799264,-1,-3,-3,-6,-35,-2,-5,-2
1615919187822283,-1,-2,-2,0,22,0,4,-1
1615919187822283,-3,1,-1,-1,29,-20,6,2
1615919187822283,-4,1,-2,1,-7,3,1,-2
1615919187822283,-2,-1,3,4,5,9,-3,-2
1615919187835986,-1,1,-1,-3,-29,-10,-4,-2
1615919187835986,4,6,4,-1,37,19,3,1
1615919187844002,0,0,2,6,-1,-14,1,-1
1615919187844002,-1,0,-1,-8,7,1,2,-1
1615919187858888,-1,-3,-4,-1,-16,9,4,0
1615919187858888,-4,-2,4,-2,-3,-2,-3,-4
1615919187860904,1,-1,-5,2,-9,-1,6,2
1615919187860904,1,2,-2,1,30,16,0,1
1615919187882422,-3,-2,0,-3,-7,-10,-6,-3
1615919187882422,-3,-4,-4,-3,-2,-15,-6,-2
1615919187882795,-2,4,4,-1,-2,6,0,0
1615919187882795,-2,-4,-1,-1,16,-5,2,0
1615919187896101,-1,-2,-1,-1,-14,-28,0,-5
1615919187896101,4,7,-5,0,-4,6,-3,3
1615919187904111,-1,-2,0,-8,-28,0,-2,-2
1615919187904111,-1,1,-1,0,21,-3,-7,-1
1615919187919084,-1,-1,1,0,-16,5,8,1
1615919187919084,-1,-4,0,-1,22,5,-22,-4
1615919187919084,1,0,-1,-2,1,1,0,0
1615919187919084,-1,-2,-1,6,-6,2,4,1
1615919187942089,0,0,4,-6,7,3,-2,1
1615919187942089,0,-2,-3,0,-24,-10,5,0
1615919187943186,-3,1,-2,0,27,10,-2,-2
1615919187943186,1,-1,-1,1,-3,1,-1,0
1615919187956004,-2,-1,-1,4,3,-1,-7,-2
1615919187956004,0,-2,-3,-7,-11,-5,9,1
1615919187964006,3,3,0,-4,19,5,-1,1
1615919187964006,-3,0,-2,-1,-3,-7,-8,-2
1615919187979313,0,1,3,4,14,7,15,1
1615919187979313,-3,-3,-2,0,-12,3,-2,-1
1615919187979313,-1,-2,-2,-1,5,6,-1,-1
1615919187979313,-2,0,-1,-2,-1,-12,-5,-2
1615919188001890,-3,-2,-5,-3,-6,5,-1,-1
1615919188001890,-2,-5,4,0,16,6,-5,-5
1615919188002888,-3,1,1,-1,12,-5,-2,-3
1615919188002888,2,1,-1,-1,-35,-6,-1,0
1615919188024859,1,4,-3,0,23,10,14,2
1615919188024859,0,-1,-4,0,9,1,-14,-1
1615919188024859,-1,-5,1,0,-26,-6,4,-2
1615919188024859,-3,-1,4,-4,-20,5,17,-2
1615919188038439,0,-1,-2,1,36,-7,-11,-3
1615919188038439,-3,-5,-8,-7,-23,5,13,-2
1615919188039408,2,2,-3,8,3,-6,1,1
1615919188039408,-2,2,3,-10,14,-1,-1,-1
1615919188062482,-2,-5,-2,-1,-36,-31,-12,-2
1615919188062482,-1,-1,0,1,9,-2,1,-1
1615919188062482,-2,-5,-3,-3,8,-1,-5,-1
1615919188062482,-1,-6,-9,-2,-11,4,-1,0
1615919188076105,-1,4,1,-5,-20,3,-4,-3
1615919188076105,2,0,-2,0,-6,-3,-5,1
1615919188083906,-2,1,3,0,-2,1,5,-1
1615919188083906,-1,-4,-2,3,11,8,15,-1
1615919188099245,-3,-8,-2,-3,6,4,-24,-2
1615919188099245,2,4,1,-1,-28,-5,5,1
1615919188099245,0,-2,-6,-2,22,7,-13,-1
1615919188099245,1,0,3,0,-1,-6,15,2
1615919188122262,-2,-1,-3,-1,-7,5,8,-1
1615919188122262,-4,-4,-4,-1,-2,-4,-2,-1
1615919188122262,0,-1,4,-4,3,-4,-11,0
1615919188122262,1,8,-4,2,41,7,-12,-2
1615919188144973,3,1,1,5,-13,2,13,3
1615919188144973,-1,2,0,-9,32,4,-3,0
1615919188144973,-1,-4,-5,-2,-20,6,5,-2
1615919188144973,-3,-6,-4,-2,-2,-7,-18,-5
1615919188158899,-3,-2,-2,-2,10,10,3,-1
1615919188158899,-1,-3,-3,2,-22,-3,-3,-4
1615919188159896,-2,-2,1,0,53,6,3,0
1615919188159896,4,6,4,0,-24,-12,13,2
1615919188182461,-2,4,2,-1,-5,2,-36,-3
1615919188182461,-1,1,-2,1,-2,0,-2,-1
1615919188182793,-4,0,-1,-2,-32,-11,-2,-2
1615919188182793,-1,-5,-4,-2,-20,-1,-8,0
1615919188204781,1,4,-1,-2,26,9,18,2
1615919188204781,-1,-1,2,2,27,-26,-13,-4
1615919188205776,1,0,-2,0,-2,2,5,3
1615919188205776,-3,-3,3,0,13,6,12,2
1615919188218720,-1,-1,-3,-1,-27,0,-2,-4
1615919188218720,-2,-3,-1,-1,-4,12,2,0
1615919188219694,-2,0,-1,0,2,-1,-4,-4
1615919188219694,-1,0,-1,3,-8,-9,-8,-1
1615919188242436,0,-3,0,-9,11,0,15,-1
1615919188242436,-3,-6,-6,2,-10,-2,2,0
1615919188242791,-2,-5,-2,-2,-6,4,2,-2
1615919188242791,0,0,1,-2,-22,9,-7,-1
1615919188264937,3,0,3,3,-1,-12,1,1
1615919188264937,-3,-5,-7,-3,4,9,8,-2
1615919188264937,-2,0,-1,-6,-32,-12,-4,0
1615919188264937,-1,2,6,3,5,-2,-9,-2
1615919188278845,1,-1,1,2,6,4,9,2
1615919188278845,0,-2,0,-5,-21,-33,-5,-2
1615919188279822,-1,-4,-6,-1,-6,3,0,0
1615919188279822,-3,-6,-5,-3,-4,1,-6,-4
1615919188301559,-2,-2,-2,-1,0,2,-7,0
1615919188301559,2,2,2,1,-16,-9,0,1
1615919188302556,1,0,4,7,-5,-5,1,-1
1615919188302556,-1,-2,-6,-13,-10,-5,-6,-3
1615919188324855,-2,-4,-8,-3,-2,3,0,-1
1615919188324855,0,-1,5,2,-27,9,-4,1
1615919188324855,-1,-3,5,0,18,-11,8,-2
1615919188324855,1,-1,-7,-1,-12,9,-32,-1
1615919188339185,1,6,8,0,-6,-20,-5,1
1615919188339185,-1,-3,0,-4,-21,15,17,-1
1615919188339185,3,2,-2,-7,-7,-16,-6,0
1615919188339185,1,1,-1,4,10,-1,-5,1
1615919188361932,-3,-3,-6,-2,-11,16,-5,-3
1615919188361932,0,1,-3,4,28,-14,-8,-2
1615919188362903,1,-1,-1,-5,-14,4,4,1
1615919188362903,1,-2,-3,1,38,10,8,1
1615919188385379,0,-3,2,0,-2,-8,-4,-3
1615919188385379,3,4,5,2,7,15,8,3
1615919188385379,-2,-2,1,5,-3,1,-6,-2
1615919188385379,-4,-3,-3,-5,-2,-9,1,-3
1615919188399275,-1,-5,-2,0,-7,-10,-7,0
1615919188399275,0,2,-3,0,14,1,18,1
1615919188399275,2,4,-3,-1,-8,3,-22,0
1615919188399275,-1,0,4,2,-22,-1,4,0
1615919188421439,-4,-4,-1,1,49,-2,5,0
1615919188421439,-3,-2,-4,-4,-7,6,-1,-1
1615919188422436,-3,-7,-4,0,-14,10,7,-1
1615919188422436,2,3,6,0,0,-8,2,-1
1615919188444865,0,-2,-4,-2,-10,19,4,-2
1615919188444865,2,2,2,0,9,0,-9,3
1615919188444865,-3,0,-2,1,-26,6,-7,-4
1615919188444865,0,-1,1,4,35,-10,19,2
1615919188458469,-3,-1,-2,-2,-2,-9,-7,-3
1615919188458469,-1,-3,-3,-1,-2,-2,-10,0
1615919188459497,0,-1,-3,1,-8,1,4,-1
1615919188459497,-3,1,6,4,-3,12,10,-1
1615919188481413,0,0,-5,-10,-6,-5,-17,-1
1615919188481413,-1,3,-4,0,4,-3,-2,-3
1615919188482410,0,0,-6,-5,5,-14,1,0
1615919188482410,-2,-6,-3,3,-3,5,-5,-1
1615919188504930,-1,0,-1,2,-2,-3,6,-1
1615919188504930,-4,-3,3,-1,-18,1,-11,-2
1615919188504930,0,1,2,-2,56,-10,2,-2
1615919188504930,-3,-5,-10,-8,-23,1,2,-2
1615919188518830,-1,-1,2,2,-12,-8,3,0
1615919188518830,-1,-3,1,-5,1,6,-4,-2
1615919188519830,3,-4,0,5,-5,-7,3,2
1615919188519830,0,4,4,0,3,-1,-4,-1
1615919188548809,-2,-5,-3,-1,0,-2,1,-1
1615919188548809,-2,-2,-3,0,-6,3,-1,-2
1615919188549812,-3,-3,-1,-4,-22,-6,-3,1
1615919188549812,-2,-1,-3,-1,-2,1,7,-3
1615919188564073,0,2,-3,4,-36,-5,-28,0
1615919188564073,0,0,-1,-7,16,7,-5,-3
1615919188565050,0,0,-3,-3,3,1,3,0
1615919188565050,-1,-3,-1,-2,-10,-11,-9,-1
1615919188579036,0,3,-2,3,22,3,8,1
1615919188579036,-1,0,-1,-1,-32,-5,2,-2
1615919188580004,0,1,2,-3,4,6,-5,-2
1615919188580004,0,-1,1,0,4,3,1,-2
1615919188601102,0,1,0,-3,5,-5,-3,-4
1615919188601102,1,-3,-4,4,13,-1,1,2
1615919188602099,-3,-4,-1,-6,3,5,0,-3
1615919188602099,2,-5,-7,-4,-21,-8,6,0
1615919188624199,0,0,2,0,0,7,4,0
1615919188624199,-1,2,3,1,2,-4,0,-3
1615919188625089,2,4,0,2,-7,5,7,-1
1615919188625089,0,-2,-1,0,-21,10,-16,0
1615919188639293,-1,0,0,-1,35,-9,5,0
1615919188639293,-3,-4,-1,2,-17,-6,-12,-2
1615919188639293,-3,-2,-4,-8,-8,-1,6,0
1615919188639293,2,2,-2,1,3,8,3,2
1615919188661787,-2,-4,-2,-4,-8,-7,2,0
1615919188661787,0,-1,3,4,9,1,6,-1
1615919188661787,-2,4,-1,2,-12,-3,-5,-2
1615919188661787,0,0,-2,0,9,-10,-7,2
