timestamp,emg1,emg2,emg3,emg4,emg5,emg6,emg7,emg8
1615919141762883,-1,0,1,-4,-16,-7,-6,-1
1615919141762883,0,-1,-3,2,-25,-2,3,1
1615919141763880,0,-2,-8,-2,11,-9,-1,1
1615919141763880,0,2,1,-3,58,14,12,1
1615919141777843,-1,0,5,4,5,10,16,-2
1615919141777843,-1,0,0,-4,-5,-4,-28,-3
1615919141778841,0,-3,-11,4,22,3,-3,-2
1615919141778841,1,-1,0,9,17,27,8,1
1615919141800604,1,-3,0,-2,-7,-4,0,-1
1615919141800604,0,0,1,-3,-1,-4,6,-2
1615919141802147,-1,-3,-18,-9,4,8,-3,-2
1615919141802147,0,2,12,1,-14,-18,0,-1
1615919141814333,1,-3,-9,-1,-19,11,-2,0
1615919141814333,-1,1,3,-3,-1,-13,0,-1
1615919141823309,-2,-2,0,1,-2,-3,-5,0
1615919141823309,-1,-3,-7,1,5,2,5,-1
1615919141837269,0,3,4,0,-8,0,-6,-1
1615919141837269,0,-1,0,1,-6,-13,5,0
1615919141839264,-2,2,1,-1,41,8,0,-2
1615919141839264,-3,-5,-4,-6,-2,-8,-2,0
1615919141860291,-3,-2,-1,0,9,-6,4,-1
1615919141860291,0,-3,-6,2,24,14,-10,-3
1615919141862292,0,1,7,-1,-11,1,-6,-1
1615919141862292,-1,-2,-3,-3,-9,-4,4,-3
1615919141874255,-2,-1,-7,2,15,10,-6,0
1615919141874255,-2,1,3,-3,-14,-6,10,0
1615919141881800,-1,-2,3,-1,-10,-8,-4,-1
1615919141881800,0,2,-3,-2,5,17,-2,-2
1615919141897855,0,3,4,0,-7,-13,2,0
1615919141897855,0,-2,1,0,10,0,-1,-1
1615919141898852,-1,-2,-1,-2,-3,0,-1,0
1615919141898852,-1,-1,-5,-3,-15,-2,-4,-1
1615919141920536,-1,-1,0,0,11,-5,-3,0
1615919141920536,0,1,5,2,2,-5,-2,-1
1615919141921533,-2,-3,0,-3,17,5,2,-3
1615919141921533,-1,-5,-4,-4,-26,-10,-4,-1
1615919141934718,1,3,6,2,-5,6,-4,-1
1615919141934718,0,-1,-7,-3,24,11,1,0
1615919141941853,0,-1,-8,0,-24,-30,0,0
1615919141941853,0,3,5,4,-20,-2,-2,-1
1615919141958116,0,-3,-2,-6,-8,15,7,-1
1615919141958116,-1,-1,-2,1,-24,-3,-4,-2
1615919141960085,-1,0,0,-4,11,-4,-1,-1
1615919141960085,0,0,-10,-2,10,12,9,2
1615919141982026,-1,-5,-4,-2,-16,-11,-9,-1
1615919141982026,-3,1,7,2,0,-12,2,-1
1615919141983022,-2,-1,-6,-4,-27,4,13,1
1615919141983022,-5,-2,5,-2,20,4,-14,-4
1615919141994991,-1,-4,-7,-2,3,6,9,-2
1615919141994991,1,1,6,-1,31,-7,-8,1
1615919142001834,-1,-3,-9,2,4,2,-11,-2
1615919142001834,-1,2,11,-1,-8,-4,0,-3
1615919142018002,-2,-1,-8,0,-1,5,1,0
1615919142018002,-1,-2,2,3,8,1,1,-1
1615919142018975,0,-1,-1,-1,-3,-10,-6,-2
1615919142018975,2,2,1,3,39,10,20,1
1615919142040701,-3,-1,-13,-5,5,3,-34,-3
1615919142040701,0,1,4,-6,-33,-3,1,0
1615919142041706,-2,-2,-1,0,46,23,5,-2
1615919142041706,-1,-2,-1,-3,-38,-4,2,1
1615919142055103,-1,1,6,3,1,-10,-1,-2
1615919142055103,2,0,-2,5,-6,1,3,1
1615919142061117,-1,0,0,-1,2,7,-3,-2
1615919142061117,-1,-1,1,-5,-21,-21,-10,-2
1615919142077146,-1,-2,1,1,1,-5,1,-3
1615919142077146,-1,-3,-10,-1,-1,5,-2,-1
1615919142079143,0,0,-4,-3,-5,9,13,1
1615919142079143,-1,1,19,1,-31,-41,-16,-2
1615919142100685,0,1,-2,-2,-7,-2,4,1
1615919142100685,0,-2,-9,-2,-4,2,2,-2
1615919142101559,0,-1,5,6,-4,8,11,0
1615919142101559,-2,-5,-13,-3,16,4,-11,-3
1615919142113935,-1,0,7,5,22,-1,3,1
1615919142113935,-1,-1,-7,-6,-41,-14,-2,0
1615919142122886,-1,0,1,3,-5,-3,1,-1
1615919142122886,0,1,-6,-4,12,15,4,1
1615919142138162,-1,-2,5,-7,-19,-6,-4,0
1615919142138162,-1,-2,-8,-2,8,3,3,-3
1615919142138993,1,1,1,0,15,-10,-7,0
1615919142138993,0,-1,-8,-1,-13,12,4,-1
1615919142159938,-4,-3,-1,0,10,-22,-4,-2
1615919142159938,-2,-5,-3,-5,-11,7,2,0
1615919142162894,-1,2,2,-5,-17,-16,-10,-3
1615919142162894,0,-2,-1,5,13,-4,-9,-2
1615919142174096,-2,-2,-8,-6,-26,4,23,0
1615919142174096,-1,4,16,9,16,-2,-28,-2
1615919142183093,0,-1,-8,-7,-15,-12,-2,2
1615919142183093,-1,-1,4,1,6,10,12,0
1615919142197637,0,-3,-6,-1,-5,-3,-11,-2
1615919142197637,-1,2,3,3,11,-1,12,0
1615919142199636,0,-4,1,-3,-16,7,-4,-2
1615919142199636,-2,2,-2,0,1,8,-4,-2
1615919142220401,1,-2,0,1,17,11,3,-1
1615919142220401,-3,-3,-8,-3,1,-13,-5,-2
1615919142221548,-2,-1,0,4,3,1,-3,-2
1615919142221548,-1,-2,-6,-6,-1,-2,5,1
1615919142233737,-1,-1,2,2,5,-5,-8,-2
1615919142233737,-1,2,7,-1,-6,4,4,1
1615919142242545,-1,-2,-1,-1,11,0,-4,-2
1615919142242545,0,-3,-8,-2,-30,-3,0,1
1615919142257508,-1,1,2,-1,2,2,-1,1
1615919142257508,1,0,-4,-2,25,2,11,-1
1615919142260411,1,2,15,5,-11,4,-18,-1
1615919142260411,-1,0,-1,-2,3,-5,-5,-3
1615919142280607,1,-2,-4,-4,-4,-4,6,-1
1615919142280607,-2,-2,1,0,-6,24,-2,-2
1615919142281523,-3,-4,-2,-2,9,-9,7,-2
1615919142281523,-2,-1,-6,1,33,0,-1,0
1615919142293653,-1,-3,2,1,-7,-6,-5,-2
1615919142293653,0,1,6,-2,-23,-2,7,0
1615919142302795,-2,-1,0,-2,-10,-1,-3,0
1615919142302795,0,-3,0,1,24,-2,-6,0
1615919142318639,-2,-1,-8,-4,0,-5,2,-1
1615919142318639,-4,-5,-7,-7,-9,-8,-8,-2
1615919142319634,0,2,16,8,-35,3,2,-1
1615919142319634,0,1,-1,3,-15,-3,6,1
1615919142340715,0,-1,0,-1,21,4,-3,0
1615919142340715,-1,-5,-6,-5,-9,-6,2,-1
1615919142341782,-2,0,7,2,11,-8,-3,-2
1615919142341782,-1,0,-2,-3,2,6,1,-2
1615919142354136,-2,-1,-10,-6,7,0,4,0
1615919142354136,-2,0,7,-2,-14,-9,-10,-1
1615919142362306,-3,-2,-10,2,46,8,9,1
1615919142362306,0,1,3,-3,-18,-11,-3,1
1615919142393521,-1,-4,-8,0,2,1,-6,-4
1615919142393521,1,3,0,1,-4,7,11,2
1615919142394518,0,-2,-6,-5,11,-1,-8,-2
1615919142394518,-3,-3,-2,2,-13,11,7,0
1615919142400626,-1,0,2,0,4,-17,-3,-1
1615919142400626,1,-1,-3,-5,-9,0,-11,0
1615919142401626,0,2,-2,-3,-9,3,1,-1
1615919142401626,-1,0,-4,-1,26,5,-2,-1
1615919142413822,-2,0,-1,-5,-18,3,8,2
1615919142413822,-3,-2,-4,5,8,-24,-6,-2
1615919142428805,0,-2,-2,-3,-9,-5,1,-1
1615919142428805,-2,-2,-3,2,-31,-2,10,-1
1615919142438204,-1,2,9,-2,55,12,-7,-1
1615919142438204,-1,-2,-5,-2,1,-3,-2,-2
1615919142439066,0,-2,-10,-6,-44,-2,-4,-1
1615919142439066,0,3,3,1,6,-10,3,0
1615919142459897,-2,1,-6,5,-11,3,-3,-2
1615919142459897,-2,-1,7,4,13,4,-5,-1
1615919142462890,-2,-3,-3,-1,30,7,6,0
1615919142462890,-1,0,2,-2,-26,-7,-10,-3
1615919142473935,-1,-2,-1,-3,-11,3,2,-1
1615919142473935,0,2,-1,3,9,-2,2,1
1615919142482815,-2,-6,-6,-3,4,3,0,-2
1615919142482815,-2,-2,-5,-4,8,12,8,-1
1615919142498155,1,1,5,5,-18,-10,-14,0
1615919142498155,-2,-4,-4,-3,4,-6,-12,-2
1615919142499807,1,1,-1,-2,-32,-14,-5,-1
1615919142499807,0,-2,-1,-1,30,11,9,-2
1615919142520768,-3,-2,-3,-3,-26,-13,-4,-2
1615919142520768,-1,-3,3,-2,-23,9,5,-2
1615919142521767,-1,-1,-2,-3,-4,-7,-2,-2
1615919142521767,-2,2,5,1,-4,-1,-12,-1
1615919142542900,0,0,6,2,10,2,6,2
1615919142542900,-1,-1,-2,-1,11,-5,2,-2
1615919142543900,-2,-1,-9,-1,-5,1,-5,-1
1615919142543900,0,0,3,2,11,-1,2,-1
1615919142557895,0,-1,3,-1,29,8,0,-1
1615919142557895,0,0,-6,-6,-13,14,4,0
1615919142559890,0,0,-2,-5,28,6,3,-1
1615919142559890,0,-3,0,6,9,0,17,0
1615919142580058,-1,-4,-6,1,-14,-4,-32,-3
1615919142580058,0,0,-4,-7,5,4,5,1
1615919142581954,-1,0,-3,4,26,3,-9,-1
1615919142581954,-1,-2,-4,-3,-41,-13,7,-1
1615919142602832,-2,-4,0,-6,-12,7,2,-2
1615919142602832,-2,-1,1,6,12,3,3,-2
1615919142604894,1,1,-6,-8,-14,-8,-6,0
1615919142604894,-3,-2,0,-2,-1,0,-12,-2
1615919142617366,1,0,-10,-3,-29,-8,12,2
1615919142617366,-2,3,7,-3,25,-1,-1,-1
1615919142619337,-3,-4,4,3,-9,2,3,-2
1615919142619337,-1,3,5,-2,11,-21,-13,-1
1615919142640770,-1,0,-2,-1,-22,2,8,1
1615919142640770,-1,-4,-4,-1,-35,3,1,-1
1615919142641769,4,2,1,0,6,-3,9,3
1615919142641769,1,-1,-7,-1,4,12,-15,0
1615919142662896,-1,-1,-2,-1,57,2,7,-2
1615919142662896,0,-1,0,2,-15,-19,-5,-2
1615919142663920,-2,-2,-2,-1,-2,6,-3,-1
1615919142663920,-2,-3,-1,-1,-10,-6,-2,-1
1615919142677857,0,1,3,0,-17,0,2,0
1615919142677857,0,-2,-2,0,5,9,0,0
1615919142678881,-2,0,-3,4,2,-3,2,0
1615919142678881,0,-2,-3,-5,6,-5,8,0
1615919142700697,-1,-2,-2,-2,-13,3,-5,0
1615919142700697,-1,0,-5,1,10,-9,-1,-2
1615919142701698,-1,-1,3,2,25,-2,-2,-3
1615919142701698,-1,-1,-6,-3,-33,-1,1,-2
1615919142722869,-3,-1,-8,-3,-18,-2,2,-2
1615919142722869,0,1,15,-2,30,3,-8,-2
1615919142723842,-2,-3,-12,0,-17,-2,21,1
1615919142723842,1,0,9,0,-5,-8,-20,-2
1615919142737644,0,-2,-5,-4,-1,1,3,-1
1615919142737644,0,0,-7,8,0,2,-4,0
1615919142743806,-1,0,2,-4,-25,-3,3,0
1615919142743806,0,-1,-5,-2,23,2,-4,-2
1615919142760572,-1,0,5,0,-2,4,-2,-1
1615919142760572,0,1,2,1,-12,-9,4,-1
1615919142761571,0,3,1,-1,9,19,-10,1
1615919142761571,-1,-3,-2,-2,-23,-32,-5,0
1615919142782538,-1,0,-4,1,-9,7,4,0
1615919142782538,0,-2,-6,-4,-14,7,2,0
1615919142784508,-2,-3,-3,-4,13,-4,-2,-4
1615919142784508,-1,0,-2,0,3,-2,6,-3
1615919142797508,-1,0,4,3,12,-1,-21,-4
1615919142797508,-2,-1,-2,-2,-5,-10,1,0
1615919142803481,-2,-1,1,-2,-16,8,1,-1
1615919142803481,-2,-2,-4,-4,-9,8,12,1
1615919142820412,0,0,2,0,25,-1,5,1
1615919142820412,-2,-1,-10,-1,-12,-7,0,-1
1615919142821433,0,0,5,0,-17,-9,-14,-3
1615919142821433,-2,0,-1,-2,3,9,2,1
1615919142842286,-2,-5,-4,2,-12,-9,3,-1
1615919142842286,1,0,-8,-10,3,-15,-3,-1
1615919142844255,0,6,4,2,-12,-1,-1,-1
1615919142844255,-1,-3,-3,3,15,0,-3,-2
1615919142857220,-2,-4,-4,-1,3,-5,0,-1
1615919142857220,-1,-2,-5,-6,-14,5,11,0
1615919142864204,0,-4,11,0,-9,0,-21,-1
1615919142864204,-1,0,6,4,24,5,-3,-3
1615919142880187,0,1,-2,-1,-7,-8,-4,0
1615919142880187,-1,-1,-1,4,38,19,2,-1
1615919142882180,-1,-3,-12,-6,-27,-10,17,-2
1615919142882180,-2,0,6,0,43,5,-17,-4
1615919142903098,0,3,5,-1,-4,6,0,1
1615919142903098,-1,-1,-3,-5,-2,-17,0,-1
1615919142904095,-1,1,13,10,-2,-8,-3,-2
1615919142904095,-2,-4,-10,-4,-1,10,-2,0
1615919142917086,0,0,0,-1,0,7,21,-2
1615919142917086,0,-3,3,-1,2,-10,-39,-3
1615919142924042,0,-2,-8,0,9,4,6,0
1615919142924042,-1,3,4,-4,-21,-5,-4,0
1615919142940132,-1,0,-1,-1,9,-6,-6,-1
1615919142940132,-1,-1,-3,-1,-14,17,5,-1
1615919142942129,0,-2,-1,-3,10,-14,-8,0
1615919142942129,0,-4,0,0,-6,13,4,2
1615919142963073,0,1,4,6,-8,-13,2,0
1615919142963073,-3,-5,-5,0,1,0,-1,-1
1615919142964070,-3,1,-4,-6,-4,-3,12,0
1615919142964070,0,0,-6,-3,-6,-3,-3,-2
1615919142977036,-2,-2,-10,-8,-20,0,-7,-3
1615919142977036,0,2,19,8,-28,8,25,1
1615919142984016,-1,-3,-7,-4,4,-22,-33,-3
1615919142984016,1,2,8,0,-8,9,4,0
1615919143000511,-2,-3,-8,-3,7,-5,-4,0
1615919143000511,0,3,6,5,12,7,3,2
1615919143001515,-2,-2,-4,-5,-25,6,13,-1
1615919143001515,-1,-4,-15,-4,-5,-17,-11,-2
1615919143023306,-1,2,15,1,1,14,-3,-3
1615919143023306,0,0,-11,-2,6,-4,5,1
1615919143024307,-1,-1,4,0,11,-4,-11,-1
1615919143024307,-1,-2,-8,-3,-5,12,7,0
1615919143045643,-1,-2,-1,-1,-2,-4,0,-1
1615919143045643,-2,-3,-3,-6,0,-3,-9,-3
1615919143046648,0,-2,-11,-1,17,16,5,1
1615919143046648,3,7,17,7,-14,-10,-1,-1
1615919143060652,-1,-5,-5,-3,-5,9,-2,-1
1615919143060652,-1,-2,-5,-2,-11,-4,6,-1
1615919143062649,0,0,3,0,-7,-4,-18,-1
1615919143062649,-2,-1,-5,0,54,10,10,-1
1615919143082855,1,-1,0,-3,-49,-17,-3,0
1615919143082855,0,1,2,-1,4,-3,-7,0
1615919143084746,-1,-1,1,-2,-5,8,12,-1
1615919143084746,-1,-3,-2,0,-15,-2,-1,-1
1615919143096035,1,1,-4,-2,6,-1,-6,-2
1615919143096035,-1,-1,4,0,1,1,5,-2
1615919143105027,0,1,-2,3,-8,-3,0,-2
1615919143105027,-2,-3,-4,-1,4,-3,-2,0
1615919143120797,-1,2,0,1,7,3,0,1
1615919143120797,-3,-1,-4,-2,6,-7,-4,-2
1615919143121797,-1,0,3,-2,11,3,0,0
1615919143121797,0,-2,-3,-1,-11,-7,-3,-1
1615919143142879,0,-4,-6,-4,6,24,4,1
1615919143142879,-1,-2,-2,5,60,0,1,-2
1615919143148877,-1,-5,1,0,-1,2,-1,2
1615919143148877,0,-2,-2,-6,0,-1,0,0
1615919143156906,-1,1,0,3,5,5,13,0
1615919143156906,-1,0,-1,0,-5,3,-26,-2
1615919143165886,0,0,-2,-2,23,6,10,1
1615919143165886,-1,-1,-3,2,-9,1,2,-1
1615919143179849,-1,-1,5,-3,-11,-17,5,-1
1615919143179849,-3,-3,-7,-2,-16,4,6,0
1615919143181872,-1,0,3,3,13,5,-4,-2
1615919143181872,0,2,6,-5,-21,-11,-5,-2
1615919143202845,-1,0,-2,4,13,-9,-1,0
1615919143202845,-2,-2,-8,-6,-9,-2,-2,0
1615919143204846,-3,-3,-2,-1,-20,0,3,-1
1615919143204846,-2,3,9,2,8,7,7,-1
1615919143216868,-1,-1,1,0,-11,-20,-10,-2
1615919143216868,-1,-1,3,0,-6,2,8,0
1615919143225839,-2,-2,-1,0,19,2,20,-1
1615919143225839,-2,-4,-9,-4,7,-10,-29,-2
1615919143240753,-1,0,3,0,-8,-5,-7,1
1615919143240753,2,1,8,5,0,4,-5,-1
1615919143241967,0,0,3,0,7,9,8,-1
1615919143241967,-3,-2,-3,-3,6,2,1,-3
1615919143263156,-1,-3,-7,-3,-2,0,-4,-2
1615919143263156,-1,-2,-3,-1,11,0,9,1
1615919143264130,0,0,-7,0,-20,-12,-10,-1
1615919143264130,1,1,5,2,-5,-10,0,0
1615919143276386,-1,-3,-5,-3,12,8,3,-2
1615919143276386,0,-1,3,-5,-21,-12,-3,-1
1615919143285014,-3,-1,-4,0,22,25,-1,0
1615919143285014,-1,-2,-3,0,-11,-10,-1,0
1615919143301421,-4,-2,-5,-5,-43,3,2,-1
1615919143301421,1,-1,0,-2,21,9,2,0
1615919143302421,1,1,6,-2,2,-11,-4,-2
1615919143302421,0,-1,-7,0,-33,6,11,0
1615919143322886,0,-1,-3,1,-10,-3,0,1
1615919143322886,-2,-2,-1,-4,0,4,-1,-2
1615919143324860,-1,-4,3,-2,-52,-14,-1,-1
1615919143324860,-2,-1,4,-2,39,-6,-3,-2
1615919143336435,1,-3,-5,2,4,-2,-8,0
1615919143336435,-1,-1,1,-1,-13,4,5,0
1615919143345410,-1,-1,-6,-4,10,-2,-6,-1
1615919143345410,0,1,2,-2,-12,-10,0,-1
1615919143360676,-1,-3,-5,0,11,4,0,-1
1615919143360676,-1,1,3,2,25,9,-5,0
1615919143362670,0,-1,1,-3,-59,-16,7,-1
1615919143362670,0,-3,-3,0,-6,-3,-12,-1
1615919143382875,0,1,1,-2,31,5,-1,-1
1615919143382875,0,-2,-3,-2,-7,0,7,-2
1615919143384868,-5,-1,-1,-1,10,-1,-10,-4
1615919143384868,-1,-2,0,1,-40,2,16,1
1615919143396542,-2,1,-2,-3,-3,-7,-23,-4
1615919143396542,0,-1,-5,1,-2,-7,12,2
1615919143405059,-1,-2,3,-3,26,9,1,1
1615919143405059,-1,0,-5,-2,-7,6,-6,-1
1615919143420571,-1,0,6,2,13,0,7,-1
1615919143420571,-2,-2,-1,0,-12,-10,-9,-4
1615919143427556,-1,-2,-8,-5,10,-1,1,-2
1615919143427556,0,0,-4,0,-11,18,-1,0
1615919143442441,0,-3,-3,-1,24,-2,2,0
1615919143442441,0,3,8,0,-29,-3,-5,-3
1615919143444443,0,-4,-4,1,36,4,-5,-2
1615919143444443,-1,-1,-1,2,4,7,1,-1
1615919143456528,0,-1,-4,-1,5,3,15,-1
1615919143456528,-2,-1,3,-1,-14,-8,-18,-2
1615919143465503,-1,-1,-3,-4,-22,-9,-1,0
1615919143465503,-1,-2,-3,-4,24,0,-3,0
1615919143480469,0,-3,-2,1,14,-8,17,-1
1615919143480469,-1,-1,-9,-4,-17,3,-6,0
1615919143481444,1,1,2,1,-19,-4,-5,-1
1615919143481444,0,-1,0,1,3,2,10,1
1615919143502838,-2,2,4,-3,-3,-14,-17,-1
1615919143502838,1,-1,0,1,-4,-13,3,1
1615919143504853,-2,-1,-7,2,-17,-3,-6,-1
1615919143504853,-2,0,-1,2,7,0,4,-1
1615919143532782,1,3,8,-6,-28,3,-3,1
1615919143532782,-2,-3,-1,-1,6,-7,-5,-3
1615919143534757,-2,-2,-7,-1,-3,-3,-2,0
1615919143534757,0,1,6,-4,-3,-1,11,0
1615919143540784,-4,-4,-3,2,12,4,-32,-3
1615919143540784,-2,-4,-5,0,13,-2,1,-1
1615919143541784,1,1,2,-3,-15,-7,5,2
1615919143541784,-1,-3,-3,-3,8,1,5,-1
1615919143562895,-1,-1,-2,-2,-29,4,5,-1
1615919143562895,1,0,-2,-2,-15,-1,2,0
1615919143563892,0,-1,4,2,8,-9,-9,-1
1615919143563892,1,2,0,-4,-6,-4,-8,-3
1615919143584050,0,0,-2,1,1,-3,7,1
1615919143584050,0,-1,0,-6,7,0,4,0
1615919143592796,-2,0,0,-1,8,3,5,0
1615919143592796,-1,-2,-7,-4,0,1,-2,-2
1615919143600227,0,0,3,1,-7,-3,1,1
1615919143600227,0,1,0,2,12,0,2,-1
1615919143601661,-2,-1,-3,-5,7,12,0,-2
1615919143601661,-2,-3,-2,2,9,-12,-8,-2
1615919143622893,-2,-1,-1,-3,-12,2,10,3
1615919143622893,-3,-4,-8,-6,3,0,-5,-2
1615919143624890,0,1,6,3,-14,1,-5,0
1615919143624890,-1,-3,-3,-2,-40,0,-1,-2
1615919143644926,-1,0,-4,1,13,-8,1,-3
1615919143644926,-1,-1,0,2,-9,17,-1,-1
1615919143646922,-1,-1,-3,-2,9,1,2,-2
1615919143646922,-4,0,1,-2,-44,-12,-10,-1
1615919143659916,-2,-5,1,-1,5,6,7,-3
1615919143659916,-2,-5,-7,-4,-12,6,-1,-1
1615919143665925,0,2,8,2,7,-5,2,-1
1615919143665925,0,-2,-6,-1,11,-2,-5,0
1615919143682899,-2,1,3,-2,3,3,-6,0
1615919143682899,0,0,8,5,-12,-3,26,2
1615919143683899,-2,-4,-7,-2,6,7,-31,-1
1615919143683899,0,-2,4,1,6,-8,-5,-2
1615919143705772,1,-3,-3,-4,-4,2,-2,0
1615919143705772,-3,-1,-4,-2,44,-4,1,-1
1615919143706771,2,0,-2,2,-9,-4,9,0
1615919143706771,-1,1,7,1,17,1,-8,-1
1615919143720164,-2,-2,0,-2,-2,19,1,-1
1615919143720164,-1,-1,-3,-3,-9,-21,-9,-4
1615919143726242,-2,-2,-8,-2,-1,6,6,0
1615919143726242,-1,-3,-5,1,17,4,-7,0
1615919143743020,-1,-1,2,0,-15,4,13,1
1615919143743020,-2,-1,-5,-2,19,0,-9,-1
1615919143744018,-1,-1,-2,-2,20,-9,0,0
1615919143744018,-2,-3,5,3,12,3,13,-1
1615919143765105,-3,-1,3,1,4,-10,-11,-5
1615919143765105,-2,0,2,-1,-11,6,-1,-1
1615919143767076,0,-1,-4,2,21,-11,-2,-1
1615919143767076,2,-1,-5,-2,10,6,6,0
1615919143779954,1,-2,-6,-6,-23,-4,1,-2
1615919143779954,1,2,4,-2,-9,-29,-9,0
1615919143786801,-4,-3,0,0,-3,-5,5,-2
1615919143786801,-3,0,-6,-1,-12,-7,-19,-4
1615919143802469,-1,0,1,-1,10,-3,2,2
1615919143802469,-1,-1,-4,-1,8,12,4,-1
1615919143804440,-1,-4,4,3,21,4,-1,-2
1615919143804440,1,-2,-4,-8,-12,-12,1,-1
1615919143825402,0,1,-2,2,1,-5,-6,-2
1615919143825402,0,0,2,0,-10,16,1,-1
1615919143827375,-2,0,-9,-11,-5,-6,4,1
1615919143827375,-2,1,3,2,-3,10,1,1
1615919143839342,-3,-1,1,-2,-31,5,1,-3
1615919143839342,-1,0,4,3,0,5,9,-2
1615919143846926,2,4,7,3,8,7,-12,1
1615919143846926,-1,-3,-8,-2,-23,-6,4,1
1615919143862813,-1,-3,-6,-1,26,9,-2,0
1615919143862813,-1,-4,-4,2,2,-11,1,0
1615919143864810,2,3,5,-2,-22,0,4,-1
1615919143864810,-1,-1,0,-1,10,2,-1,-1
1615919143885763,-1,0,-1,-1,-1,-9,7,0
1615919143885763,-1,2,7,-2,-4,-1,-9,0
1615919143887391,-1,-5,-8,2,-1,-1,1,-3
1615919143887391,-1,1,5,0,8,-1,1,-1
1615919143908289,0,0,0,-1,4,2,2,0
1615919143908289,-1,-2,-7,-7,5,-1,5,0
1615919143909804,-2,0,0,-3,-38,-4,-11,1
1615919143909804,-1,-1,0,1,10,-10,-4,-2
1615919143922878,-1,-1,-2,2,70,10,0,-2
1615919143922878,-1,-1,-1,-1,-26,-7,2,-2
1615919143924898,-1,-1,-1,-4,-50,1,3,-2
1615919143924898,-2,-3,-3,-2,-3,-6,-1,-3
1615919143944888,1,2,0,-1,-16,-10,-7,0
1615919143944888,-1,-2,6,5,9,7,-10,-1
1615919143946881,-2,-4,-11,-1,-13,8,19,2
1615919143946881,2,2,-2,-3,15,-13,-9,0
1615919143959919,-2,-2,4,-4,-35,0,5,-2
1615919143959919,0,-3,0,-1,2,-1,-5,-2
1615919143965928,-2,-1,7,-2,15,6,4,0
1615919143965928,-3,-4,-7,-3,23,-11,-18,-6
1615919143982754,0,0,-3,-1,-31,-10,0,0
1615919143982754,-2,0,-6,-1,-3,3,-2,-2
1615919143984650,-1,-5,-3,-1,9,3,2,-2
1615919143984650,0,2,0,0,-3,7,11,0
1615919144005793,0,1,4,3,24,-3,-8,1
1615919144005793,-2,-3,-7,-6,-30,-12,-9,-1
1615919144006791,-1,1,0,-4,35,-3,7,-3
1615919144006791,-2,0,0,5,-1,10,7,1
1615919144018783,-1,-3,-4,-4,-14,-6,-4,0
1615919144018783,-1,-1,-9,0,-6,-2,1,0
1615919144027851,-1,-1,-4,-3,-4,-16,-10,-2
1615919144027851,-1,1,-1,-5,1,7,9,1
1615919144043041,-2,-3,-2,5,36,27,4,-1
1615919144043041,0,1,5,-5,-16,-8,1,-1
1615919144044041,-2,-1,-4,-1,36,7,-8,-4
1615919144044041,0,2,10,2,-16,1,12,1
1615919144064889,-2,-3,-3,-2,-6,-12,-17,-4
1615919144064889,0,0,-1,3,7,4,3,2
1615919144066884,0,-3,-9,1,-5,-1,-5,-1
1615919144066884,-1,0,2,-2,-18,9,22,0
1615919144079466,-2,-1,1,-1,-12,-14,-14,-2
1615919144079466,-1,-3,-2,0,17,-20,-4,2
1615919144087472,-2,2,0,-2,-15,-11,-2,-2
1615919144087472,1,0,4,3,11,9,-6,-2
1615919144102499,-3,-1,-5,-4,-10,-4,5,-1
1615919144102499,-2,-2,-4,-6,-19,0,-4,-1
1615919144104495,0,-2,-2,4,-19,-5,3,-1
1615919144104495,-1,3,3,-6,25,-6,-8,1
1615919144124893,1,-2,-5,2,13,9,19,1
1615919144124893,-1,-2,2,3,5,-2,-5,0
1615919144126888,-1,0,0,0,-4,-11,5,1
1615919144126888,-3,-6,-9,-4,-26,2,-13,-3
1615919144139415,-1,0,5,-1,12,-6,0,-3
1615919144139415,-1,-5,-6,1,18,9,9,-1
1615919144147679,1,1,1,-1,-22,-22,-6,0
1615919144147679,-2,-1,-9,-2,2,5,2,-1
1615919144162904,-1,2,12,11,11,-5,-1,-2
1615919144162904,-1,0,3,-3,-20,12,-7,-2
1615919144163925,-1,2,-1,1,23,8,-4,-1
1615919144163925,0,-3,-1,1,11,-8,-2,-2
1615919144185772,1,-1,-6,-4,15,0,4,-1
1615919144185772,-1,0,1,-4,-46,-1,-3,-2
1615919144187420,-1,-4,1,1,18,10,13,0
1615919144187420,1,3,-3,1,-4,-15,-9,0
1615919144199487,-3,-3,-4,-2,-9,1,2,1
1615919144199487,-1,2,-5,1,-6,-3,-3,-1
1615919144208355,-2,-2,-6,-6,-36,-4,14,-2
1615919144208355,-2,-4,-2,-2,14,6,-12,-1
1615919144222348,0,0,-3,0,2,18,-5,-1
1615919144222348,0,0,2,-2,16,-12,9,2
1615919144224317,-1,-1,-3,2,9,7,-4,-1
1615919144224317,-2,0,-2,-6,-14,1,-3,0
1615919144245410,0,0,0,-1,-7,-19,0,-1
1615919144245410,-1,-3,-3,-4,-25,8,1,0
1615919144246412,-1,-2,2,-2,5,0,-8,1
1615919144246412,-1,-1,-2,4,15,8,15,0
1615919144258927,1,-2,-4,-1,7,-4,-15,-1
1615919144258927,-3,3,5,-3,-16,-14,-5,-2
1615919144267905,-2,-1,-1,3,29,14,-6,-1
1615919144267905,-1,-2,2,-2,-33,-22,5,-2
1615919144282464,0,-1,-3,-2,-2,-1,1,-1
1615919144282464,0,0,-4,2,25,14,-3,-1
1615919144284461,0,0,1,-2,16,4,-5,1
1615919144284461,1,0,3,-1,9,0,3,-1
1615919144304977,-4,-4,-7,-4,-9,7,1,-1
1615919144304977,0,1,7,7,13,-2,3,-1
1615919144306908,-2,-2,-5,-8,-24,-7,-16,-2
1615919144306908,-1,2,-2,3,-22,2,-6,1
1615919144319439,-1,1,5,-4,4,-1,12,-1
1615919144319439,-1,-4,-5,-3,18,4,-14,-3
1615919144327531,-2,-5,-3,-3,-51,-10,4,-2
1615919144327531,1,4,19,1,-16,3,-3,0
1615919144342791,-1,-4,-6,-2,-35,4,9,-1
1615919144342791,1,-1,-2,2,10,-14,-4,0
1615919144344816,1,0,5,2,-12,8,-2,-1
1615919144344816,-2,-5,-8,-6,-3,-23,-11,-4
1615919144364789,-4,2,0,1,-7,0,1,-1
1615919144364789,0,-2,0,-4,-15,0,5,-1
1615919144366785,-2,2,-1,-2,10,4,-4,-2
1615919144366785,-3,-5,-14,-3,7,8,3,-3
1615919144378819,2,-2,15,11,49,3,-6,-1
1615919144378819,0,1,-2,0,-2,-2,2,1
1615919144387803,-1,-3,-2,-1,22,-3,5,-2
1615919144387803,-3,-1,-3,1,0,2,-7,-1
1615919144402839,-4,0,0,-4,-15,-14,9,2
1615919144402839,-3,-3,-8,-1,4,7,-21,-3
1615919144404840,0,3,8,-3,-15,-5,13,1
1615919144404840,-3,-4,-6,0,60,17,0,-1
1615919144425827,0,0,2,0,-19,-17,-14,-1
1615919144425827,0,-1,0,0,8,0,13,2
1615919144426798,-1,-2,-4,-2,6,7,-5,-1
1615919144426798,-2,-4,1,0,-3,3,-9,-3
1615919144447858,-1,-1,-13,-7,-26,2,-5,-3
1615919144447858,-2,-1,3,0,17,5,8,-1
1615919144449116,0,1,-3,-1,-20,-18,-6,1
1615919144449116,1,-1,-1,1,-6,6,4,1
1615919144462908,-2,-1,-8,-5,7,-4,3,-1
1615919144462908,0,0,7,3,0,4,-1,-2
1615919144463901,-1,-2,0,-2,2,3,-4,1
1615919144463901,-1,-1,1,0,-34,-8,-4,-2
1615919144484896,0,0,0,-3,-2,5,6,1
1615919144484896,-1,-1,-4,-2,-4,-1,-4,-2
1615919144486672,0,2,4,0,27,-25,0,-2
1615919144486672,-1,-3,-6,-4,5,-3,7,0
1615919144508202,0,-2,-5,-1,-3,-4,-11,-2
1615919144508202,-1,-2,-5,0,8,1,-4,-2
1615919144509819,0,1,3,0,-6,3,13,-2
1615919144509819,0,0,8,-2,-28,-9,-15,-2
1615919144522785,-1,-2,-1,0,-5,-6,-3,-1
1615919144522785,0,-1,-9,-2,-2,0,2,-1
1615919144524779,-2,-1,-2,1,-17,-1,0,-3
1615919144524779,-2,-1,-3,-1,6,2,8,0
1615919144545823,-2,-1,6,-2,-22,4,-6,-3
1615919144545823,-2,-2,-4,-6,-13,-1,2,-2
1615919144546823,0,2,2,5,45,0,-9,0
1615919144546823,1,-1,-4,-6,-64,1,10,-1
1615919144568306,-3,-1,-2,2,11,11,-4,-2
1615919144568306,-1,-1,-2,-2,-3,-31,-6,-1
1615919144569164,-2,-6,-2,-4,-13,0,-1,-3
1615919144569164,1,3,6,5,45,1,-4,1
1615919144582991,2,1,-5,-1,-2,2,-2,-2
1615919144582991,-2,-1,1,-1,-4,11,-1,0
1615919144584892,-3,-4,-9,-2,-2,6,-1,-3
1615919144584892,0,4,8,1,9,-8,-6,-2
1615919144604824,0,-3,-7,-8,-24,-9,0,2
1615919144604824,-1,2,7,4,-3,2,22,0
1615919144606841,0,0,-6,1,5,4,-35,-2
1615919144606841,-3,-1,-4,-3,16,4,4,-1
1615919144627763,-1,-1,-4,-3,15,-7,-13,-2
1615919144627763,-2,0,2,2,15,8,3,-1
1615919144629760,-1,2,-1,-4,-1,19,24,2
1615919144629760,-2,-4,-5,4,2,-19,-9,0
1615919144641746,1,0,4,4,-1,-4,-1,0
1615919144641746,-1,-4,-4,-4,4,2,-4,0
1615919144648702,0,-1,-1,-1,-4,5,-4,0
1615919144648702,-2,-2,-4,-2,26,12,6,-3
1615919144665763,-1,-1,-5,-1,-3,0,2,0
1615919144665763,1,5,17,4,-13,2,-5,1
1615919144666761,-2,-2,3,3,0,0,13,0
1615919144666761,-2,-2,-5,-2,-13,2,-13,-3
1615919144687703,-2,0,1,-3,-14,2,5,0
1615919144687703,-3,-6,-10,-1,-2,0,-8,-2
1615919144689698,0,2,7,2,-9,-4,8,-1
1615919144689698,0,-3,-5,-1,21,5,-3,-3
1615919144701849,3,0,6,2,0,-3,-4,0
1615919144701849,-2,1,1,-3,6,1,3,-1
1615919144708830,-1,-4,-4,-1,-7,-12,-1,-1
1615919144708830,1,0,9,1,-27,-8,-10,-1
1615919144725823,0,-1,-1,-1,15,8,-3,-3
1615919144725823,1,-2,-5,-3,-8,-4,4,-2
1615919144726786,-2,-2,0,-2,6,-5,-6,-1
1615919144726786,-1,0,-3,-1,-16,10,5,0
1615919144748101,-2,-1,-6,-1,-2,-10,19,0
1615919144748101,0,-2,-3,1,-7,-6,-43,-2
1615919144749807,0,-1,5,-4,-10,5,-5,-1
1615919144749807,0,-1,-1,1,5,1,17,0
1615919144762563,-3,-2,2,-1,9,-3,-8,-2
1615919144762563,-1,-2,-13,-2,-9,-1,8,0
1615919144768521,0,-1,2,0,26,-2,-3,-1
1615919144768521,-2,-2,-10,0,18,4,-2,-1
1615919144785771,0,-2,5,0,11,23,-2,0
1615919144785771,-1,0,8,1,-32,-10,2,-2
1615919144786771,-2,-1,-5,1,7,3,-8,-4
1615919144786771,-1,-1,-2,-3,-2,-4,5,3
1615919144808271,0,1,-4,1,10,13,0,1
1615919144808271,-2,-2,-3,-7,14,2,-1,-1
1615919144809806,0,-1,8,2,-17,1,11,0
1615919144809806,-2,-3,-10,-7,-15,-7,8,1
1615919144821798,2,5,17,6,-11,-10,-22,-1
1615919144821798,1,-1,1,0,-5,5,3,0
1615919144828755,-1,-1,-6,-2,17,-8,6,1
1615919144828755,-2,-2,-3,-1,-23,-12,2,-2
1615919144845761,-3,-2,-5,-5,-18,-2,0,-1
1615919144845761,1,1,0,1,11,15,7,0
1615919144846759,0,4,-5,-3,-34,0,-6,0
1615919144846759,-1,0,7,0,17,-7,-15,-2
1615919144867868,-2,-4,-9,-4,-8,-9,8,-1
1615919144867868,0,0,-1,1,20,6,0,1
1615919144869863,-2,-4,-4,-1,-3,0,-2,-3
1615919144869863,-2,-1,-5,-3,-4,-8,-2,1
1615919144882547,-2,1,5,2,-6,1,10,1
1615919144882547,-1,1,8,0,2,-11,-29,-3
1615919144889354,-1,-2,-6,-3,19,4,0,-2
1615919144889354,1,1,1,-2,-4,5,3,1
1615919144905702,-1,-2,-8,-3,3,0,0,-1
1615919144905702,-3,-5,-9,2,6,-2,13,-3
1615919144906706,0,-1,1,0,-6,16,1,1
1615919144906706,1,2,2,2,7,-29,-17,-4
1615919144927675,0,-1,-3,-6,-22,-2,6,-2
1615919144927675,-1,-1,-2,-4,-14,-13,0,-1
1615919144929646,-1,1,2,2,31,12,0,-1
1615919144929646,-2,-5,-3,-5,-4,8,4,-1
1615919144941611,0,-1,3,2,0,-7,-3,0
1615919144941611,0,-1,-7,-4,-5,-4,7,1
1615919144950586,-1,-1,4,1,-9,-8,12,-3
1615919144950586,0,-3,-3,-1,14,10,-22,-2
1615919144965700,-1,4,11,2,16,-14,-5,0
1615919144965700,1,0,-1,-4,-4,3,0,-1
1615919144967448,0,-3,-4,-3,-17,-17,1,0
1615919144967448,1,2,-3,1,3,-3,5,0
1615919144988227,-2,-4,-6,-5,-19,9,-2,-1
1615919144988227,-1,1,-1,0,66,21,2,0
1615919144989831,-3,-1,-2,3,-11,-10,-4,-2
1615919144989831,0,1,5,-3,-25,-1,5,0
1615919145001877,-2,-4,-6,2,17,-2,-2,-1
1615919145001877,-2,-1,7,6,21,7,4,0
1615919145010368,-2,-1,-3,-3,-11,-13,-9,0
1615919145010368,-2,-2,-6,-2,15,8,2,0
1615919145025423,-1,2,8,5,-7,3,1,-4
1615919145025423,-2,-2,-7,-4,-24,-9,-2,-2
1615919145027319,-1,-3,-2,-7,-11,-9,4,0
1615919145027319,0,-3,1,0,-13,-2,-4,-2
1615919145047842,0,-4,-7,-4,18,0,-3,-3
1615919145047842,1,0,0,-3,-13,-12,2,1
1615919145049835,-1,0,-3,-1,19,19,6,1
1615919145049835,-2,-1,-4,-2,-26,-33,-3,-2
1615919145060944,-2,0,-1,-1,12,-9,-6,-1
1615919145060944,-1,-2,-5,-1,-5,8,5,-1
1615919145070231,0,-1,0,-1,0,5,-2,-1
1615919145070231,-1,-1,1,1,2,7,5,-1
1615919145085872,-1,-2,-1,-2,-5,-9,-8,-2
1615919145085872,0,2,-1,1,-20,-11,-2,-3
1615919145087468,-2,-3,-11,-8,0,-4,-8,-3
1615919145087468,0,3,21,11,-2,16,2,0
1615919145108206,-3,-3,-7,-6,5,-4,5,1
1615919145108206,-1,-4,-5,-1,3,2,3,-1
1615919145109814,1,2,10,0,-5,-1,0,-1
1615919145109814,-1,0,-9,-4,6,8,-10,-1
1615919145121813,-1,-1,4,0,-5,7,-1,0
1615919145121813,-2,-3,-1,-4,16,-14,1,-1
1615919145130773,0,0,-2,1,-44,-7,-4,1
1615919145130773,-2,-4,-1,-3,-6,5,4,0
1615919145145661,-1,-2,-8,2,2,-7,1,1
1615919145145661,-1,0,0,0,14,11,-4,-2
1615919145146660,-2,-1,3,-3,4,4,3,-1
1615919145146660,-2,-2,-3,0,-4,-1,4,-2
1615919145167647,-2,0,-4,-5,-4,2,-4,1
1615919145167647,-1,-1,12,6,-10,-8,13,-1
1615919145169987,0,1,1,1,8,-7,-35,-1
1615919145169987,-2,1,-1,-3,5,6,7,-2
1615919145181024,-2,-4,-5,2,11,7,3,0
1615919145181024,0,-2,-8,-7,-39,5,-4,-1
1615919145190220,-1,0,2,6,3,0,5,-1
1615919145190220,-1,0,-2,-7,-44,-6,-6,-2
1615919145205834,0,0,7,2,-5,0,-2,0
1615919145205834,0,-1,-1,0,3,7,3,-1
1615919145206834,0,-2,-6,0,-22,-10,-4,-1
1615919145206834,2,-1,-4,-3,13,-4,-2,1
1615919145227820,2,-1,0,-2,-15,6,4,-3
1615919145227820,-4,-1,3,-1,-29,-11,-6,0
1615919145229067,-2,0,-2,-3,29,1,5,-2
1615919145229067,-1,-2,-8,-5,-19,-6,-1,-2
1615919145241965,-2,-1,13,5,-5,-4,-6,-3
1615919145241965,-1,0,0,-1,14,-3,8,0
1615919145251006,-2,-3,-10,-2,8,16,-8,-1
1615919145251006,-2,-3,-5,-5,-28,-2,5,-1
1615919145264913,-2,-2,-8,3,21,5,-2,-2
1615919145264913,0,1,3,-2,-2,-4,-5,0
1615919145266885,-2,-1,-6,-1,10,9,10,0
1615919145266885,0,2,10,3,7,-2,-1,0
1615919145288228,-1,-1,-5,-6,3,-8,-6,-1
1615919145288228,-2,-3,-3,-1,-10,-2,4,-1
1615919145289858,-1,-2,-1,1,1,-9,-2,-3
1615919145289858,-1,-3,-9,-7,4,9,-7,-1
1615919145301852,-2,1,6,7,42,-2,3,-2
1615919145301852,-2,-2,0,-6,-25,-6,6,-2
1615919145310831,-1,-2,-2,-3,2,-10,-3,0
1615919145310831,-3,-2,-2,2,17,7,10,-1
1615919145325813,0,0,-4,-3,-10,4,-20,-1
1615919145325813,1,2,6,1,3,9,-4,0
1615919145326789,-3,-2,-2,-4,8,-11,6,-3
1615919145326789,-1,-3,1,3,10,6,-2,-1
1615919145348262,1,-2,-4,-5,-7,-5,10,2
1615919145348262,0,0,-8,1,10,1,-7,0
1615919145349893,0,0,5,-3,-7,4,-9,-1
1615919145349893,-1,-1,5,4,11,4,5,-1
1615919145370871,-2,-2,-9,-4,2,-3,3,-2
1615919145370871,-3,1,-4,0,-11,-13,-11,0
1615919145371871,0,-1,0,1,19,9,1,-1
1615919145371871,1,-1,-10,4,41,3,0,2
1615919145385868,-1,0,0,-6,-23,-4,0,0
1615919145385868,-3,-2,-5,-4,-15,-20,-2,-2
1615919145387485,0,2,7,4,7,21,4,0
1615919145387485,-1,-1,0,2,-9,-2,7,-1
1615919145408101,-1,-1,1,0,1,-3,-12,-2
1615919145408101,1,-3,-8,-2,35,1,-7,-1
1615919145409100,0,0,4,-1,-30,-4,14,0
1615919145409100,0,-1,-11,-1,4,3,-10,0
1615919145431157,-2,-2,3,-2,-13,-3,3,-2
1615919145431157,0,-2,15,4,-10,2,-1,-1
1615919145436988,-1,-2,-10,-5,-11,6,-4,-2
1615919145436988,0,0,2,1,-8,-20,-3,-1
1615919145445870,-1,-2,-2,2,-12,1,12,-1
1615919145445870,-1,-1,-1,-2,6,3,-4,-1
1615919145447513,-3,-1,-1,1,1,-14,-6,-1
1615919145447513,-3,-2,-1,-4,-12,1,1,-2
1615919145467893,-1,0,-2,-2,20,6,13,1
1615919145467893,-1,-1,1,-2,-4,-2,-38,-2
1615919145469963,-1,-5,-3,-4,-9,4,2,-3
1615919145469963,-1,0,2,-2,-24,-35,-6,-2
1615919145490836,0,-2,-6,1,-19,-9,-3,-1
1615919145490836,0,3,8,-1,-19,12,7,-1
1615919145491835,0,-2,-5,-2,-9,-2,4,-2
1615919145491835,1,-2,-4,-1,39,17,-1,1
1615919145505820,1,3,10,2,-21,-10,0,0
1615919145505820,-2,-5,-9,-4,19,-10,6,-1
1615919145506844,2,0,3,5,3,-4,-8,0
1615919145506844,-3,-1,0,-1,2,13,5,-1
1615919145527764,0,-2,-9,0,14,-2,7,1
1615919145527764,-1,-4,-8,-4,-19,14,11,-3
1615919145529761,-1,1,2,2,58,-6,-13,1
1615919145529761,-1,-2,2,-1,10,27,1,0
1615919145550806,-2,-1,-5,-4,2,-7,-1,-2
1615919145550806,-1,2,6,0,7,-1,5,-1
1615919145551806,-2,-4,-5,-2,-4,4,7,-1
1615919145551806,-1,2,10,0,-7,2,-2,-1
1615919145564897,-2,-1,-8,-3,-6,7,-4,-2
1615919145564897,-1,-2,0,0,-4,3,7,-1
1615919145579022,-1,-2,-7,-3,1,-5,-3,0
1615919145579022,-1,-2,-5,-8,-28,-12,-8,-4
1615919145588317,0,1,4,3,15,10,-3,0
1615919145588317,-1,-1,-8,1,5,-7,-2,0
1615919145589175,-2,0,0,-1,-9,0,2,-1
1615919145589175,0,-1,-4,-4,-8,-9,-1,-1
1615919145609898,-1,-3,-4,-3,11,5,-1,0
1615919145609898,-2,0,6,1,-19,13,-4,-2
1615919145611892,-1,-3,0,-4,-7,-15,1,0
1615919145611892,0,1,-2,4,7,-1,10,0
1615919145624934,-1,-3,-6,-6,3,-2,-29,-6
1615919145624934,0,0,2,-1,4,4,9,1
1615919145631861,-1,0,-2,0,-9,-3,0,-1
1615919145631861,0,-1,1,-3,1,-11,-2,-2
1615919145648118,-1,-1,1,0,-10,4,4,0
1615919145648118,-1,-1,4,-2,-12,-16,-7,0
1615919145649147,0,0,-14,-7,-18,-3,-5,0
1615919145649147,-3,-4,13,6,-6,9,9,0
1615919145670855,-3,1,2,0,-6,-5,4,0
1615919145670855,-1,-3,-5,0,26,-11,-1,0
1615919145671854,-3,-3,0,-1,-2,2,-8,-2
1615919145671854,2,4,1,-1,2,13,-4,1
1615919145684985,-1,-4,-4,-1,-11,-8,6,-1
1615919145684985,-2,-1,-6,-3,17,-7,-15,-4
1615919145691990,1,2,8,4,-12,3,9,1
1615919145691990,-3,-2,-4,-1,10,-5,-21,-2
1615919145708250,-1,-1,-2,-2,-12,6,16,0
1615919145708250,1,0,-4,1,-8,-3,-22,-2
1615919145709247,-2,0,9,1,20,0,0,-1
1615919145709247,2,3,-2,2,-9,-1,8,2
1615919145730777,0,-3,-2,-3,9,-6,1,-2
1615919145730777,0,1,7,5,1,2,10,-1
1615919145731777,-1,2,3,1,30,12,-4,0
1615919145731777,-3,-3,-3,-3,-18,-13,-3,-3
1615919145744507,-1,-2,-7,-2,9,9,-10,0
1615919145744507,1,-2,0,-1,-10,-8,7,1
1615919145752014,-1,-1,4,-2,18,-2,-4,1
1615919145752014,-2,1,8,3,10,2,-1,-2
1615919145767885,-3,0,-4,-1,-17,1,6,0
1615919145767885,-3,0,-4,-3,35,4,-11,-1
1615919145769976,-1,-2,-4,0,-15,-8,4,-2
1615919145769976,0,-1,-8,-4,-5,-4,-2,-1
1615919145790843,-1,-2,8,0,-15,-8,-10,-2
1615919145790843,-2,-2,-6,-1,15,14,29,1
1615919145791842,0,2,6,-2,-16,-15,-21,-2
1615919145791842,1,0,-6,-2,-3,2,-2,-1
1615919145804450,0,-1,6,4,23,2,0,-1
1615919145804450,-1,-1,-8,-2,6,-3,-1,-1
1615919145811333,1,1,-7,-2,-51,20,4,0
1615919145811333,0,0,-5,-8,9,-10,6,-1
1615919145827891,-2,1,1,-2,-27,-13,-15,-2
1615919145827891,-1,-3,-5,1,17,0,2,0
1615919145829885,-2,-3,-2,-2,6,3,2,0
1615919145829885,0,-3,-3,4,-15,-8,-1,-2
1615919145851538,-1,2,-2,-5,-21,-3,3,0
1615919145851538,-1,0,-1,-2,-13,3,10,0
1615919145852538,-1,1,8,8,14,-13,-30,-1
1615919145852538,-3,-3,-3,-3,5,4,2,-1
1615919145864873,2,0,-4,5,-9,-6,2,2
1615919145864873,0,-1,0,-3,-7,3,-1,-3
1615919145871932,-2,-3,1,-2,8,-4,7,-2
1615919145871932,-1,-1,6,-1,0,4,-5,-1
1615919145888304,-1,-1,-3,-2,0,9,-1,0
1615919145888304,-2,0,-4,0,7,2,-4,-1
1615919145889969,-2,-4,-8,3,62,7,20,2
1615919145889969,-1,1,4,-3,-26,-6,-10,0
1615919145909916,-3,-3,-4,0,42,6,6,-1
1615919145909916,-1,-1,-3,-3,-5,-9,10,-1
1615919145911910,0,-1,3,2,1,7,-22,-2
1615919145911910,-2,0,-4,-2,1,-5,-4,-2
1615919145924006,0,-2,2,-1,13,-4,1,-1
1615919145924006,-2,1,0,-2,-23,3,-2,-1
1615919145932885,-1,-1,0,-5,-32,-13,7,0
1615919145932885,0,0,-5,3,24,16,4,0
1615919145947934,-1,-1,-1,-4,-22,-6,-2,0
1615919145947934,-2,-1,8,3,5,1,-9,-1
1615919145949195,0,0,-5,-3,-16,7,15,-1
1615919145949195,-2,-4,0,1,7,-11,-18,-1
1615919145970872,0,2,0,-3,25,6,6,0
1615919145970872,-1,-1,-9,-5,-11,4,-7,-1
1615919145971872,-3,-1,2,3,21,-17,1,-3
1615919145971872,0,0,-11,-8,-28,-4,9,1
1615919145983940,-1,-1,15,7,-2,13,14,-1
1615919145983940,0,-3,-4,-3,-11,-8,-35,-3
1615919145992972,0,0,-7,0,7,5,6,0
1615919145992972,-2,1,16,2,-2,12,0,0
1615919146008039,-1,-1,-9,-4,-12,-43,-10,-3
1615919146008039,-1,-1,4,-1,1,6,21,-1
1615919146009065,-2,-4,-5,-1,-26,-5,1,-2
1615919146009065,2,0,-7,-1,16,7,5,1
1615919146030217,-2,0,3,-1,3,15,-12,-2
1615919146030217,-1,-1,1,-1,6,-9,3,1
1615919146032114,-2,-2,-4,-2,-16,-10,-12,0
1615919146032114,-2,-3,-4,0,-14,-1,9,-2
1615919146043816,0,-1,-2,-4,-10,-1,-8,-1
1615919146043816,0,-2,-2,2,12,-1,-2,-2
1615919146052828,0,-1,-8,-3,-24,4,5,1
1615919146052828,-3,-1,14,1,-4,-6,8,0
1615919146068357,-2,-1,-5,-2,-7,3,-14,-3
1615919146068357,2,0,2,-1,-6,4,6,2
1615919146069216,-1,3,6,-1,-18,-28,-5,-4
1615919146069216,-1,-1,-1,-2,12,1,7,0
1615919146098356,-1,-4,-5,-1,4,-3,0,-1
1615919146098356,0,-2,-6,0,-5,-3,1,0
1615919146099215,1,0,12,0,-8,1,1,-2
1615919146099215,-1,-1,-5,-3,24,2,-6,0
1615919146103719,-2,-1,3,1,-1,2,0,0
1615919146103719,-2,0,-5,-1,-6,-6,-1,0
1615919146113453,0,-1,-11,-2,-7,7,4,2
1615919146113453,-1,0,6,3,-10,-13,-7,-2
1615919146127582,-3,-1,-6,-4,-8,3,-2,-4
1615919146127582,-1,1,6,-1,-20,-3,21,1
1615919146129577,-1,-2,-2,-1,18,8,-30,0
1615919146129577,-3,-4,-6,0,-9,-21,-1,-4
1615919146150874,-1,0,-4,1,14,3,9,-2
1615919146150874,-1,-3,-2,-3,-5,-4,-7,-3
1615919146151873,-2,-2,-3,-2,-5,3,6,-2
1615919146151873,0,1,-3,2,9,1,-6,0
1615919146163890,0,-2,4,0,-42,-16,0,1
1615919146163890,-2,2,3,-2,3,-5,-7,-2
1615919146172795,2,-2,-2,1,8,1,4,1
1615919146172795,0,0,-3,-2,-2,12,-2,0
1615919146188332,0,0,-6,-5,-27,-11,3,0
1615919146188332,-3,-3,1,1,38,1,-9,-1
1615919146189195,-4,1,0,-6,-15,0,3,-1
1615919146189195,0,1,13,6,17,4,2,0
1615919146210444,-2,-3,-5,-2,2,5,3,-1
1615919146210444,-1,-2,-1,2,-55,-13,-8,-2
1615919146212451,-2,-1,-4,-11,-6,-2,3,0
1615919146212451,0,-1,-8,-2,2,-1,-1,1
1615919146224006,1,-2,3,1,29,6,5,0
1615919146224006,-2,0,1,2,18,-1,-3,-2
1615919146232816,0,0,-7,1,-4,-2,1,0
1615919146232816,-2,-2,-3,-4,-18,-1,4,-2
1615919146248085,1,0,-3,0,16,2,-7,1
1615919146248085,0,-1,-4,-1,1,3,1,0
1615919146249921,-1,0,8,3,-18,4,-3,-3
1615919146249921,-3,0,-3,-2,29,0,-2,0
1615919146277406,-2,-1,7,4,-3,-1,-8,0
1615919146277406,-2,-2,1,-2,-8,-3,2,-1
1615919146279890,-2,-2,-10,-1,-3,-11,-5,-3
1615919146279890,1,0,0,1,19,22,3,2
1615919146283910,0,0,-1,-2,-23,5,2,-1
1615919146283910,-1,-1,1,-2,-29,-24,-9,-1
1615919146292534,0,-1,0,0,46,6,8,0
1615919146292534,-3,-4,-10,0,-21,-2,-5,-2
1615919146308100,0,0,4,0,12,-2,-2,-1
1615919146308100,-1,-2,-6,-1,11,3,11,0
1615919146309098,-1,1,1,-3,-32,-1,-13,-3
1615919146309098,0,-1,9,2,-9,-10,-4,-1
1615919146329917,-2,-3,-5,-3,14,-4,0,-2
1615919146329917,2,2,-4,2,-10,1,-5,1
1615919146331913,-2,-1,6,2,11,6,3,0
1615919146331913,-2,-2,-8,-2,-12,0,2,-3
1615919146352447,-1,-2,-3,-2,-23,-7,1,0
1615919146352447,0,2,5,-2,-5,-1,-4,0
1615919146354453,-1,-4,-9,1,37,3,11,0
1615919146354453,-1,-1,1,-2,-15,-11,11,-1
1615919146382898,0,1,-2,-1,-3,3,-17,-2
1615919146382898,-3,-4,-8,-4,7,1,2,-2
1615919146384992,1,1,11,7,-2,-4,-6,-1
1615919146384992,-2,-3,-2,-3,0,-8,6,-2
1615919146390918,0,1,-6,0,35,2,-2,-2
1615919146390918,-1,-1,0,-4,-14,12,-1,-3
1615919146391918,0,-1,-5,-1,20,-5,-3,-1
1615919146391918,1,-2,-3,-6,-8,-1,-5,-1
1615919146412883,-2,0,10,7,-6,4,2,-1
1615919146412883,0,-2,-9,-1,-12,-1,-2,0
1615919146414879,1,-1,3,-1,-1,5,2,2
1615919146414879,-1,-2,-5,-4,-12,-12,4,-3
1615919146426847,-2,-1,4,-1,8,9,-4,-2
1615919146426847,-1,3,5,-1,-3,-8,2,0
1615919146433910,-1,-1,-1,-2,24,2,5,1
1615919146433910,-1,-1,-6,-5,-6,10,4,-2
1615919146450853,0,1,1,4,14,-5,0,0
1615919146450853,-2,-5,-8,-3,-5,7,-1,-1
1615919146451854,-1,-1,3,-1,-24,-1,-3,-1
1615919146451854,0,-1,1,1,13,-2,-3,0
1615919146474108,0,-2,-1,-4,-13,-5,3,0
1615919146474108,-1,-2,-1,-1,18,7,-5,-3
1615919146475105,0,-2,0,-5,-15,-5,3,-1
1615919146475105,-2,0,4,5,-16,-6,-6,-1
1615919146487769,-3,-1,-2,-1,-29,-5,-3,-1
1615919146487769,-1,-1,-3,0,1,4,-1,-1
1615919146493792,-1,-2,-5,-2,-6,1,3,-2
1615919146493792,-2,-1,7,4,8,12,-6,-2
1615919146509896,0,-1,-11,-7,-4,-37,-2,0
1615919146509896,-2,-2,4,8,41,8,10,1
1615919146511891,-3,-1,-4,-2,-19,3,10,-1
1615919146511891,0,-1,-1,-2,24,5,-19,-3
1615919146532829,-1,-4,-4,0,21,18,7,0
1615919146532829,-1,1,-3,-6,-46,-18,-6,0
1615919146534827,0,2,0,2,-6,-8,3,1
1615919146534827,0,0,-1,-3,-8,-2,2,0
1615919146547715,-4,-3,-2,-4,-7,7,-2,-3
1615919146547715,-1,2,4,0,-13,4,-3,-2
1615919146553969,-2,-1,2,0,34,-1,-2,-1
1615919146553969,0,-1,-1,-2,-11,-18,-3,0
1615919146570092,1,2,-4,0,-2,9,-2,0
1615919146570092,-1,-2,8,0,23,11,2,-1
1615919146572063,-1,-2,-7,-8,-68,1,-5,-2
1615919146572063,0,3,7,2,26,11,20,0
1615919146593121,-1,-1,2,-1,-9,-19,-27,-2
1615919146593121,-1,-3,-2,1,36,10,-1,0
1615919146594119,-2,-4,-9,-5,17,-5,-8,-2
1615919146594119,1,-1,-4,0,1,4,7,1
1615919146607675,0,-1,-1,-3,-9,0,7,-2
1615919146607675,2,1,0,0,-15,-5,-4,-1
1615919146614137,0,1,7,4,12,-6,-3,0
1615919146614137,-1,-4,-4,-6,-1,-10,-7,-1
1615919146630825,2,-1,-6,-1,32,6,6,0
1615919146630825,1,-1,-6,-3,1,-8,-1,1
1615919146631824,-2,-1,0,1,-14,7,14,-1
1615919146631824,-3,-1,11,2,-6,-34,-29,-5
1615919146653218,-2,-1,-4,-3,-23,8,6,2
1615919146653218,-2,-1,5,-2,10,2,1,-2
1615919146654177,0,-2,-5,2,5,-8,-1,1
1615919146654177,-1,-3,-9,3,34,23,15,-1
1615919146666885,0,0,4,0,40,-7,-31,-4
1615919146666885,-2,-1,-4,-8,-36,-13,-1,0
1615919146674496,-1,-3,4,5,14,12,-3,-1
1615919146674496,-2,-3,-7,-4,20,0,-5,-1
1615919146690753,-2,-1,2,0,-11,4,18,1
1615919146690753,-1,3,4,3,8,3,-2,-1
1615919146691762,1,-1,-11,-3,-15,-6,-10,0
1615919146691762,0,2,5,-2,-19,8,4,0
1615919146712777,-1,-2,-3,-1,1,-23,5,-2
1615919146712777,-1,-2,1,-5,-3,6,-5,-2
1615919146714771,0,-1,-6,-1,2,4,5,1
1615919146714771,-1,-2,-3,-2,-51,-13,-5,-2
1615919146726739,-2,-3,2,1,-1,5,7,-1
1615919146726739,0,-2,-2,-1,22,6,-3,-1
1615919146733742,-2,2,-2,-4,1,-9,-7,-4
1615919146733742,0,-2,-7,2,19,6,13,1
1615919146758235,0,0,-1,-6,-6,-2,2,0
1615919146758235,-2,-6,-6,1,-7,-10,-3,0
1615919146759728,0,0,8,2,28,14,3,1
1615919146759728,-1,1,-1,-4,-14,-8,-3,-2
1615919146772718,-2,-1,3,3,-11,14,25,2
1615919146772718,1,1,-6,0,-5,-8,-13,-1
1615919146774687,-3,-5,-7,-4,-9,-34,-4,-4
1615919146774687,0,0,-5,-4,-8,5,-9,0
1615919146787585,-2,-3,-1,2,35,2,-2,-1
1615919146787585,-2,-5,-5,-7,-41,-2,0,-2
1615919146793719,0,2,10,4,6,13,1,1
1615919146793719,-2,-1,-2,1,10,-1,-8,0
1615919146810755,-1,0,-4,3,-2,-3,-4,-3
1615919146810755,-1,-3,-2,-4,-5,6,7,-1
1615919146811752,-1,0,4,2,-12,1,-1,2
1615919146811752,-1,-1,-2,2,-11,-2,-1,-1
1615919146833713,-2,-2,-5,-1,11,5,13,1
1615919146833713,0,3,7,0,2,0,-27,-1
1615919146834690,-1,-6,-7,-3,4,-1,3,-2
1615919146834690,0,-1,-2,-2,-10,0,-2,-2
1615919146847040,0,1,4,3,-15,3,-3,-3
1615919146847040,-2,-2,-5,1,-2,5,9,0
1615919146855255,-1,2,3,-1,-25,-26,-7,-4
1615919146855255,2,0,-2,-2,17,13,0,0
1615919146870931,0,-2,-3,-4,-14,-3,-8,-1
1615919146870931,-1,-1,-5,0,-4,0,10,0
1615919146871931,-1,-1,-2,1,6,9,-19,-2
1615919146871931,-1,-3,1,1,7,-2,1,0
1615919146892254,-1,1,0,-3,-13,-7,-6,-1
1615919146892254,1,-1,-5,-2,18,-3,2,-1
1615919146900247,-2,0,9,3,-1,0,8,0
1615919146900247,-3,1,4,-6,-24,-1,14,-1
1615919146907057,1,-3,-5,4,9,5,-40,-3
1615919146907057,-1,-1,4,2,13,-1,11,0
1615919146915037,-2,1,-2,-4,2,2,-1,-3
1615919146915037,-2,-4,-7,-2,31,9,-1,-1
1615919146931556,-2,0,0,-3,-38,-39,2,-1
1615919146931556,1,1,9,1,13,4,3,0
1615919146932556,-1,-3,-13,-5,-4,5,-2,-1
1615919146932556,-1,-1,1,1,-2,-10,-15,-4
1615919146952905,0,0,1,-1,15,12,13,1
1615919146952905,0,2,-4,1,25,1,-3,1
1615919146955003,-3,-3,0,2,20,4,-1,-1
1615919146955003,0,1,-9,-4,-8,-5,-2,1
1615919146966896,-2,1,11,5,-10,4,2,-1
1615919146966896,-2,-1,-1,-2,-25,-11,0,-2
1615919146975892,0,-2,1,-3,1,3,3,-1
1615919146975892,-1,-4,-3,1,29,1,3,0
1615919146990919,0,-2,-4,-1,4,12,2,0
1615919146990919,-2,-2,-1,-1,-20,-3,3,-3
1615919146991918,2,3,2,6,20,-21,-5,1
1615919146991918,-1,-3,-4,-5,-24,8,6,-3
1615919147012450,-1,-1,3,-3,-1,-5,1,-2
1615919147012450,-1,-1,-7,-3,10,2,-7,-2
1615919147014426,-3,-2,-2,2,1,14,9,0
1615919147014426,-2,0,-3,0,2,-24,-9,1
1615919147035919,-1,-2,-4,-4,7,5,4,1
1615919147035919,-1,0,5,3,-3,-2,-2,0
1615919147037562,-2,-1,-6,-6,-16,1,1,-3
1615919147037562,-1,-1,-2,0,-16,2,0,0
1615919147050920,0,1,4,-2,6,3,9,-1
1615919147050920,0,0,-1,0,-6,-7,-30,-2
1615919147051920,-1,-2,-6,-5,-23,-2,-1,-2
1615919147051920,-1,-3,3,2,-4,11,-4,-1
